,Time,Temperature,Vmax
1,0.883549722,9.405193333,1475.957536
2,0.8838,9.4112,1476.975892
3,0.884049722,9.417193333,1477.517556
4,0.8843,9.4232,1481.615666
5,0.884550278,9.429206667,1481.119203
6,0.884880278,9.437126667,1478.244414
7,0.885208056,9.444993333,1478.479187
8,0.8854575,9.45098,1477.39984
9,0.8857025,9.45686,1472.575099
10,0.885951944,9.462846667,1468.396747
11,0.886203333,9.46888,1469.107774
12,0.886538611,9.476926667,1467.994072
13,0.886866667,9.4848,1469.871745
14,0.887116111,9.490786667,1471.683506
15,0.8873675,9.49682,1472.916946
16,0.887616111,9.502786667,1472.928302
17,0.887863611,9.508726667,1470.230538
18,0.888206389,9.516953333,1466.755297
19,0.888538611,9.524926667,1461.881139
20,0.888786389,9.530873333,1463.186256
21,0.889041111,9.536986667,1463.742643
22,0.889292778,9.543026667,1464.923692
23,0.889543889,9.549053333,1464.962871
24,0.889876389,9.557033333,1462.706302
25,0.890203333,9.56488,1464.539985
26,0.890455,9.57092,1462.148299
27,0.890703333,9.57688,1462.251034
28,0.890953056,9.582873333,1461.897311
29,0.891199444,9.588786667,1457.670459
30,0.891533889,9.596813333,1452.183474
31,0.891862778,9.604706667,1451.341117
32,0.892111389,9.610673333,1448.353894
33,0.892359167,9.61662,1441.140451
34,0.8926075,9.62258,1436.852978
35,0.892859167,9.62862,1434.286644
36,0.893196111,9.636706667,1430.666814
37,0.893524167,9.64458,1427.487332
38,0.893771667,9.65052,1422.375255
39,0.894018611,9.656446667,1419.613936
40,0.894267778,9.662426667,1414.892666
41,0.894516667,9.6684,1413.903586
42,0.894871111,9.676906667,1410.770047
43,0.895212778,9.685106667,1405.191163
44,0.895460278,9.691046667,1401.943543
45,0.895708889,9.697013333,1393.035823
46,0.895960833,9.70306,1391.115775
47,0.896211111,9.709066667,1383.363347
48,0.896545833,9.7171,1373.741355
49,0.8968775,9.72506,1372.337899
50,0.897124167,9.73098,1372.973103
51,0.897376389,9.737033333,1372.918008
52,0.897626944,9.743046667,1371.804751
53,0.897876944,9.749046667,1372.375344
54,0.898214444,9.757146667,1372.218956
55,0.898543333,9.76504,1374.179123
56,0.898790833,9.77098,1373.346997
57,0.899042222,9.777013333,1371.852087
58,0.899291667,9.783,1369.951927
59,0.899539167,9.78894,1371.852387
60,0.899876389,9.797033333,1372.162084
61,0.900205278,9.796305,1370.770654
62,0.900454167,9.791825,1372.944918
63,0.900708889,9.78724,1374.174648
64,0.900956667,9.78278,1373.892487
65,0.901203333,9.77834,1372.277122
66,0.901550556,9.77209,1370.098539
67,0.901891944,9.765945,1371.547347
68,0.902140833,9.761465,1376.093242
69,0.902391944,9.756945,1377.582759
70,0.902643056,9.752425,1376.185469
71,0.902891667,9.74795,1379.244811
72,0.903234167,9.741785,1380.448859
73,0.903568889,9.73576,1375.421118
74,0.903815556,9.73132,1375.76178
75,0.904063889,9.72685,1378.565629
76,0.904311667,9.72239,1379.199599
77,0.904560278,9.717915,1382.412103
78,0.904904722,9.711715,1384.141104
79,0.905241944,9.705645,1383.203995
80,0.905493333,9.70112,1380.848203
81,0.905741667,9.69665,1378.418076
82,0.905990556,9.69217,1375.715197
83,0.906239444,9.68769,1374.693195
84,0.906568056,9.681775,1372.166116
85,0.906893889,9.67591,1369.872812
86,0.907142778,9.67143,1368.985031
87,0.907393889,9.66691,1368.138021
88,0.907645,9.66239,1369.622385
89,0.907893611,9.657915,1368.184498
90,0.908228056,9.651895,1365.256075
91,0.908559722,9.645925,1366.460014
92,0.908811111,9.6414,1363.667693
93,0.909061667,9.63689,1358.258035
94,0.909311667,9.63239,1354.629149
95,0.909558611,9.627945,1354.065547
96,0.909891111,9.62196,1352.896566
97,0.910216111,9.61611,1351.86609
98,0.910461111,9.6117,1346.95279
99,0.910708056,9.607255,1345.366843
100,0.910955556,9.6028,1347.615398
101,0.911204167,9.598325,1348.064618
102,0.911548889,9.59212,1348.074515
103,0.911884167,9.586085,1346.560117
104,0.9121325,9.581615,1346.905264
105,0.912383889,9.57709,1351.222187
106,0.912635833,9.572555,1356.479061
107,0.912886389,9.568045,1359.935989
108,0.913223333,9.56198,1361.158942
109,0.913556111,9.55599,1365.859101
110,0.9138075,9.551465,1367.985091
111,0.914059444,9.54693,1369.262173
112,0.91431,9.54242,1366.252402
113,0.914561111,9.5379,1364.238289
114,0.914903889,9.53173,1360.699917
115,0.915235556,9.52576,1360.860642
116,0.915481111,9.52134,1360.023164
117,0.915729722,9.516865,1360.628898
118,0.915978333,9.51239,1361.041373
119,0.916225,9.50795,1361.071095
120,0.916558889,9.50194,1360.522854
121,0.916884722,9.517008333,1354.657533
122,0.91713,9.53614,1356.300742
123,0.9173775,9.555445,1351.604243
124,0.917626111,9.574836667,1351.99071
125,0.917876111,9.594336667,1352.493719
126,0.918217778,9.620986667,1351.021015
127,0.918548889,9.646813333,1353.694136
128,0.9187975,9.666205,1354.119615
129,0.919046667,9.68564,1350.783431
130,0.919296111,9.705096667,1346.384275
131,0.919545556,9.724553333,1345.232987
132,0.919871944,9.750011667,1342.501808
133,0.920196389,9.775318333,1339.937115
134,0.920443611,9.794601667,1340.907726
135,0.9206925,9.814015,1343.597175
136,0.920942778,9.833536667,1341.953965
137,0.921191944,9.852971667,1337.133892
138,0.921524722,9.878928333,1331.738246
139,0.921851944,9.904451667,1326.02605
140,0.922098889,9.923713333,1328.931588
141,0.92235,9.9433,1326.013132
142,0.922601111,9.962886667,1321.772438
143,0.922850556,9.982343333,1317.535507
144,0.923189722,10.00879833,1311.725458
145,0.923525,10.03495,1309.221716
146,0.923776944,10.05460167,1306.95634
147,0.924026389,10.07405833,1305.599322
148,0.924276944,10.09360167,1299.54194
149,0.924529444,10.11329667,1293.312544
150,0.924876667,10.14038,1286.302575
151,0.925214444,10.16672667,1283.009008
152,0.925465833,10.186335,1278.589629
153,0.925714444,10.20572667,1272.929891
154,0.925964722,10.22524833,1270.65467
155,0.926213056,10.24461833,1266.901213
156,0.926549444,10.27085667,1261.743674
157,0.926881111,10.29672667,1260.22344
158,0.927128889,10.31605333,1253.08855
159,0.927375278,10.33527167,1249.780091
160,0.927623056,10.35459833,1244.454765
161,0.927871944,10.37401167,1245.349555
162,0.928215,10.40077,1245.599892
163,0.92855,10.4269,1241.764042
164,0.928799167,10.446335,1238.545332
165,0.929046667,10.46564,1235.167154
166,0.929298889,10.48531333,1235.05148
167,0.929550278,10.50492167,1235.067398
168,0.929876389,10.53035833,1232.315999
169,0.930198056,10.55544833,1229.339867
170,0.930449444,10.57505667,1226.43723
171,0.930698889,10.59451333,1221.937838
172,0.93095,10.6141,1218.444533
173,0.931203333,10.63386,1212.566107
174,0.931550278,10.66092167,1205.793442
175,0.931888611,10.68731167,1206.568504
176,0.932138889,10.70683333,1202.709529
177,0.932391111,10.72650667,1196.168764
178,0.932643056,10.74615833,1190.408369
179,0.932896389,10.76591833,1187.340005
180,0.933244722,10.79308833,1183.633236
181,0.933581944,10.79105,1180.130766
182,0.9338275,10.78221,1179.144827
183,0.934073889,10.77334,1180.239017
184,0.934321667,10.76442,1174.840027
185,0.934571389,10.75543,1171.678914
186,0.934924167,10.74273,1167.721917
187,0.935264722,10.73047,1168.842836
188,0.935513333,10.72152,1168.801253
189,0.935764722,10.71247,1168.293396
190,0.936013889,10.7035,1170.580301
191,0.936261944,10.69457,1172.996638
192,0.936608056,10.68211,1174.527196
193,0.936946944,10.66991,1174.91574
194,0.937196389,10.66093,1175.459886
195,0.937448611,10.65185,1173.601581
196,0.9377,10.6428,1170.502764
197,0.937948611,10.63385,1171.421001
198,0.938292778,10.62146,1171.341272
199,0.938624444,10.60952,1171.022479
200,0.938872222,10.6006,1168.568616
201,0.93912,10.59168,1167.974538
202,0.939364722,10.58287,1164.507773
203,0.939609722,10.57405,1163.130351
204,0.939952222,10.56172,1159.549328
205,0.940291944,10.54949,1157.168264
206,0.940541389,10.54051,1153.491055
207,0.940789167,10.53159,1149.241548
208,0.941039444,10.52258,1145.585048
209,0.941288889,10.5136,1139.518135
210,0.941613333,10.50192,1131.498584
211,0.941931667,10.49046,1127.594389
212,0.942183611,10.48139,1122.005448
213,0.942435,10.47234,1115.551165
214,0.942684444,10.46336,1107.978021
215,0.942931111,10.45448,1106.428908
216,0.943272778,10.44218,1105.938551
217,0.943604722,10.43023,1105.67275
218,0.943851111,10.42136,1104.401872
219,0.944101667,10.41234,1103.345664
220,0.944351667,10.40334,1106.765543
221,0.944603889,10.39426,1106.719482
222,0.944950278,10.38179,1105.157967
223,0.945289167,10.36959,1107.483534
224,0.945538889,10.3606,1106.785911
225,0.945784722,10.35175,1107.167557
226,0.946034167,10.34277,1111.335392
227,0.946286389,10.33369,1114.748424
228,0.946640833,10.32093,1117.26525
229,0.946981667,10.30866,1119.951012
230,0.947228333,10.29978,1115.994277
231,0.947475,10.2909,1115.238985
232,0.947722778,10.28198,1111.600269
233,0.947973889,10.27294,1113.429594
234,0.948306389,10.26097,1113.712191
235,0.948631944,10.24925,1115.048467
236,0.948883889,10.24018,1115.108833
237,0.9491325,10.23123,1115.762992
238,0.949383056,10.22221,1114.81709
239,0.949631667,10.21326,1114.38385
240,0.949975,10.2009,1113.165781
241,0.950308889,10.2,1111.036775
242,0.950561667,10.2,1112.684258
243,0.9508175,10.2,1108.054221
244,0.951068056,10.2,1107.091748
245,0.9513175,10.2,1108.969498
246,0.951673889,10.2,1110.117933
247,0.952018889,10.2,1114.877441
248,0.952268333,10.2,1119.838603
249,0.95252,10.2,1122.022092
250,0.952770278,10.2,1122.658901
251,0.953019722,10.2,1119.091452
252,0.953359444,10.2,1113.973428
253,0.953689444,10.2,1114.712812
254,0.95394,10.2,1113.489194
255,0.954189167,10.2,1116.796693
256,0.954439722,10.2,1113.637341
257,0.954694722,10.2,1111.197822
258,0.955031667,10.2,1107.216944
259,0.955363333,10.2,1107.541962
260,0.955611944,10.2,1107.010051
261,0.955860278,10.2,1103.219431
262,0.956107222,10.2,1098.534974
263,0.956356667,10.2,1092.943016
264,0.956698333,10.2,1087.290946
265,0.957034722,10.2,1088.88292
266,0.957278889,10.2,1088.081359
267,0.957525278,10.2,1084.864358
268,0.957774722,10.2,1080.200336
269,0.95802,10.2,1075.406135
270,0.958356667,10.2,1069.013736
271,0.958685,10.2,1064.07948
272,0.958938056,10.2,1061.707171
273,0.9591875,10.2,1060.661523
274,0.959439722,10.2,1060.121985
275,0.959690833,10.2,1055.103531
276,0.960024444,10.2,1049.05002
277,0.960348889,10.2,1049.294764
278,0.960594722,10.2,1044.299474
279,0.960843056,10.2,1044.32462
280,0.961094167,10.2,1049.180963
281,0.961343611,10.2,1050.356001
282,0.961691944,10.2,1051.42178
283,0.962033889,10.2,1052.559193
284,0.962281389,10.2,1053.194114
285,0.962529167,10.2,1055.924786
286,0.962775556,10.2,1056.298001
287,0.963024167,10.2,1061.697852
288,0.963372222,10.2,1065.445026
289,0.963709722,10.2,1064.983141
290,0.963959722,10.2,1063.813869
291,0.964209444,10.2,1062.965665
292,0.964457222,10.2,1064.630438
293,0.964706389,10.2,1065.364924
294,0.96504,10.2,1065.429146
295,0.96537,10.2,1070.453769
296,0.965618333,10.2,1073.961249
297,0.965866944,10.2,1072.288276
298,0.966115556,10.2,1069.643364
299,0.966365556,10.2,1072.478349
300,0.966713333,10.19972,1073.431182
301,0.967049167,10.197705,1069.987414
302,0.967295,10.19623,1068.123893
303,0.967540833,10.194755,1068.708173
304,0.967787778,10.19327333,1061.437152
305,0.968037222,10.19177667,1061.974994
306,0.968376944,10.18973833,1062.583416
307,0.968707778,10.18775333,1061.421644
308,0.9689575,10.186255,1064.422874
309,0.969208333,10.18475,1069.731109
310,0.969457778,10.18325333,1074.991595
311,0.969708333,10.18175,1080.479775
312,0.970040278,10.17975833,1084.505514
313,0.970364444,10.17781333,1088.927107
314,0.970616667,10.1763,1091.127524
315,0.970866944,10.17479833,1088.495201
316,0.971115556,10.17330667,1087.050558
317,0.9713675,10.171795,1087.987543
318,0.971704722,10.16977167,1087.524852
319,0.972032778,10.16780333,1093.012022
320,0.972282222,10.16630667,1090.97335
321,0.972531667,10.16481,1095.544943
322,0.9727775,10.163335,1096.104738
323,0.973026111,10.16184333,1095.626168
324,0.973356944,10.15985833,1094.155709
325,0.973683889,10.15789667,1096.351546
326,0.973930833,10.156415,1099.495252
327,0.9741775,10.154935,1101.004946
328,0.9744275,10.153435,1102.872599
329,0.974677222,10.15193667,1101.705666
330,0.975034444,10.14979333,1098.595752
331,0.975380833,10.147715,1099.299949
332,0.97563,10.14622,1098.718827
333,0.9758825,10.144705,1099.92998
334,0.976134722,10.14319167,1097.518283
335,0.976384722,10.14169167,1100.90737
336,0.976731111,10.13961333,1104.833523
337,0.977068333,10.13759,1105.304202
338,0.977321667,10.13607,1109.817286
339,0.977572778,10.13456333,1116.455551
340,0.977823333,10.13306,1121.359578
341,0.978076389,10.13154167,1119.886518
342,0.978411111,10.12953333,1116.076122
343,0.978736944,10.12757833,1118.381036
344,0.978982778,10.12610333,1119.982538
345,0.979228611,10.12462833,1122.469913
346,0.979481111,10.12311333,1125.668201
347,0.979735,10.12159,1129.356961
348,0.980070278,10.11957833,1133.246815
349,0.980399167,10.117605,1137.43146
350,0.9806475,10.116115,1134.144147
351,0.980896111,10.11462333,1133.504165
352,0.981142222,10.11314667,1130.228539
353,0.981386667,10.11168,1129.212775
354,0.981719444,10.10968333,1125.798421
355,0.982049167,10.107705,1127.427002
356,0.982297778,10.10621333,1126.967072
357,0.982546389,10.10472167,1124.098773
358,0.9827925,10.103245,1124.019462
359,0.983041667,10.10175,1119.219696
360,0.983376111,10.09871667,1113.15564
361,0.983705,10.08885,1110.6279
362,0.983954167,10.081375,1111.872841
363,0.984203056,10.07390833,1109.959193
364,0.984450833,10.066475,1111.29125
365,0.984701111,10.05896667,1111.442669
366,0.985031111,10.04906667,1111.18042
367,0.985355278,10.03934167,1113.362663
368,0.985605833,10.031825,1116.45855
369,0.985856667,10.0243,1119.616056
370,0.986108056,10.01675833,1120.109176
371,0.986359444,10.00921667,1121.020065
372,0.986694722,9.999158333,1120.313364
373,0.987022778,9.989316667,1119.675128
374,0.987273056,9.981808333,1118.978243
375,0.9875225,9.974325,1122.748358
376,0.987770556,9.966883333,1121.856181
377,0.988018056,9.959458333,1121.790778
378,0.988361389,9.949158333,1120.055757
379,0.988693056,9.939208333,1121.434323
380,0.988939722,9.931808333,1117.430392
381,0.989187778,9.924366667,1118.488078
382,0.989438611,9.916841667,1114.215507
383,0.9896875,9.909375,1110.659946
384,0.990018889,9.899433333,1107.218451
385,0.990343056,9.889708333,1108.886843
386,0.990591944,9.882241667,1110.588232
387,0.990841667,9.87475,1106.4265
388,0.99109,9.8673,1105.470243
389,0.991341111,9.859766667,1103.506779
390,0.991684722,9.849458333,1099.339076
391,0.99202,9.8394,1094.314508
392,0.992268611,9.831941667,1092.921979
393,0.992519167,9.824425,1089.969854
394,0.992768333,9.81695,1085.936802
395,0.993018611,9.809441667,1077.00344
396,0.9933475,9.799575,1067.562781
397,0.993673333,9.7898,1063.073655
398,0.9939225,9.782325,1056.399816
399,0.994168333,9.77495,1053.095992
400,0.994414167,9.767575,1055.897283
401,0.9946625,9.760125,1051.948894
402,0.995000833,9.749975,1046.718785
403,0.995333333,9.74,1047.069429
404,0.995580278,9.732591667,1045.191337
405,0.995828611,9.725141667,1046.109541
406,0.996077222,9.717683333,1042.426646
407,0.996323611,9.710291667,1042.841735
408,0.996663889,9.700083333,1042.726996
409,0.996998333,9.69005,1040.313922
410,0.9972475,9.682575,1040.053415
411,0.997495833,9.675125,1038.955857
412,0.997744722,9.667658333,1038.8543
413,0.997993333,9.6602,1040.352024
414,0.998332222,9.650033333,1040.900056
415,0.998663889,9.640083333,1040.868393
416,0.998912222,9.632633333,1046.229294
417,0.999161944,9.625141667,1049.080183
418,0.999409722,9.617708333,1047.991313
419,0.99966,9.6102,1052.236532
420,1.000001389,9.599991667,1054.209805
421,1.000335,9.59799,1051.256977
422,1.00059,9.59646,1048.097897
423,1.000841389,9.594951667,1049.145697
424,1.001088889,9.593466667,1046.366666
425,1.0013375,9.591975,1047.492997
426,1.0016775,9.589935,1048.914075
427,1.002004444,9.587973333,1044.752046
428,1.002253889,9.586476667,1047.756953
429,1.002503333,9.58498,1050.853901
430,1.002753056,9.583481667,1049.616157
431,1.003004167,9.581975,1050.726725
432,1.003341389,9.579951667,1050.221176
433,1.003673889,9.577956667,1052.056459
434,1.003924444,9.576453333,1053.327422
435,1.004172222,9.574966667,1049.889315
436,1.004420278,9.573478333,1045.331699
437,1.0046725,9.571965,1046.131031
438,1.005011389,9.569931667,1045.065739
439,1.005339722,9.567961667,1047.777897
440,1.005585556,9.566486667,1047.032598
441,1.005838333,9.56497,1049.145717
442,1.0060925,9.563445,1050.947678
443,1.006341389,9.561951667,1050.748203
444,1.006683889,9.559896667,1050.925454
445,1.007018889,9.557886667,1050.562132
446,1.007269444,9.556383333,1053.837809
447,1.007517222,9.554896667,1052.587717
448,1.007764722,9.553411667,1052.439801
449,1.008014444,9.551913333,1051.195427
450,1.008351111,9.549893333,1048.236162
451,1.008675556,9.547946667,1047.2228
452,1.008923333,9.54646,1045.164178
453,1.009170833,9.544975,1043.300798
454,1.009419722,9.543481667,1044.40984
455,1.009671667,9.54197,1049.681229
456,1.010028056,9.539831667,1054.504514
457,1.010371667,9.53777,1052.806202
458,1.01062,9.53628,1053.874331
459,1.010869722,9.534781667,1057.882429
460,1.011119444,9.533283333,1059.729476
461,1.011371944,9.531768333,1060.606732
462,1.011709444,9.529743333,1059.967867
463,1.012040278,9.527758333,1059.674416
464,1.012292222,9.526246667,1062.276601
465,1.012543889,9.524736667,1068.615457
466,1.012795833,9.523225,1069.164729
467,1.013046944,9.521718333,1074.631961
468,1.013383333,9.5197,1079.370448
469,1.013712222,9.517726667,1080.795501
470,1.013958889,9.516246667,1083.50964
471,1.014209444,9.514743333,1086.549886
472,1.0144625,9.513225,1086.254954
473,1.014714444,9.511713333,1084.799964
474,1.015055833,9.509665,1081.497093
475,1.015391667,9.50765,1082.279428
476,1.015637778,9.506173333,1084.149274
477,1.015889167,9.504665,1079.606179
478,1.016136667,9.50318,1081.367644
479,1.0163875,9.501675,1080.047905
480,1.016717778,9.501226667,1077.782979
481,1.017041389,9.508993333,1077.748308
482,1.017291389,9.514993333,1077.407318
483,1.017541944,9.521006667,1076.218087
484,1.017794167,9.52706,1077.09771
485,1.018047222,9.533133333,1076.567438
486,1.018385833,9.54126,1074.689313
487,1.018718611,9.549246667,1075.014374
488,1.018966667,9.5552,1071.799145
489,1.019219444,9.561266667,1071.464373
490,1.019468889,9.567253333,1069.293902
491,1.019720278,9.573286667,1073.149139
492,1.020046389,9.581113333,1075.971716
493,1.02037,9.58888,1070.648457
494,1.020616667,9.5948,1070.256747
495,1.020864167,9.60074,1073.174186
496,1.021110278,9.606646667,1076.357259
497,1.021358333,9.6126,1076.28595
498,1.021705556,9.620933333,1074.919273
499,1.022045833,9.6291,1074.963695
500,1.022296944,9.635126667,1079.256395
501,1.022543889,9.641053333,1082.845602
502,1.022791944,9.647006667,1083.662702
503,1.023040833,9.65298,1085.559995
504,1.023374167,9.66098,1087.611577
505,1.023705,9.66892,1089.1806
506,1.023953333,9.67488,1093.592253
507,1.024205833,9.68094,1094.611691
508,1.024459722,9.687033333,1096.200703
509,1.024712778,9.693106667,1099.499567
510,1.025041944,9.701006667,1101.034493
511,1.025363611,9.708726667,1101.506426
512,1.025611111,9.714666667,1104.73189
513,1.025859722,9.720633333,1107.761054
514,1.026106111,9.726546667,1108.809238
515,1.026353889,9.732493333,1104.712915
516,1.026674722,9.740193333,1100.313452
517,1.026996111,9.747906667,1099.950045
518,1.027243889,9.753853333,1096.273498
519,1.027492222,9.759813333,1093.808101
520,1.027745556,9.765893333,1092.649703
521,1.027993333,9.77184,1090.567945
522,1.028325556,9.779813333,1086.624493
523,1.028650278,9.787606667,1089.969601
524,1.028899722,9.793593333,1090.720084
525,1.029146389,9.799513333,1089.047202
526,1.029395,9.80548,1087.236541
527,1.029642778,9.811426667,1086.157668
