,Time,Temperature,Vmax
1,0.433686944,9.504243333,56.00282135
2,0.433934722,9.507216667,57.16947742
3,0.434186111,9.510233333,58.36386705
4,0.434433611,9.513203333,57.67425667
5,0.434681111,9.516173333,58.85454856
6,0.435063889,9.520766667,59.95602491
7,0.435426944,9.525123333,56.69164308
8,0.4356775,9.52813,54.60382798
9,0.435925556,9.531106667,52.21483432
10,0.436175,9.5341,48.32515962
11,0.436427222,9.537126667,48.98873245
12,0.436816667,9.5418,49.28643073
13,0.437185278,9.546223333,47.89325514
14,0.437433611,9.549203333,46.54855419
15,0.437686667,9.55224,48.27696496
16,0.437935278,9.555223333,46.30150686
17,0.438182778,9.558193333,47.85809392
18,0.438563056,9.562756667,49.88953359
19,0.438925556,9.567106667,48.66253322
20,0.439173333,9.57008,50.29537364
21,0.4394225,9.57307,50.61670815
22,0.439673889,9.576086667,50.4743782
23,0.439923611,9.579083333,52.61423574
24,0.440312778,9.583753333,55.02094158
25,0.440679167,9.58815,58.14732891
26,0.440928611,9.591143333,59.30829042
27,0.441177222,9.594126667,58.45798628
28,0.441422778,9.597073333,57.77555687
29,0.441671667,9.60006,57.94625438
30,0.442056944,9.604683333,57.6343765
31,0.442423333,9.60908,59.52280886
32,0.442671944,9.612063333,58.94843996
33,0.442919722,9.615036667,58.26366038
34,0.4431675,9.61801,58.78979134
35,0.4434175,9.62101,61.18376043
36,0.443794722,9.625536667,63.62447995
37,0.444156111,9.629873333,62.00015447
38,0.444406389,9.632876667,63.10127249
39,0.444658611,9.635903333,59.28081143
40,0.444910556,9.638926667,62.43822569
41,0.445172778,9.642073333,62.0149068
42,0.445557778,9.646693333,61.39914624
43,0.445922222,9.651066667,60.87458358
44,0.446169167,9.65403,58.57301709
45,0.446420278,9.657043333,57.96222201
46,0.446674167,9.66009,58.00490292
47,0.446929167,9.66315,57.22174824
48,0.447316389,9.667796667,56.84901619
49,0.447685556,9.672226667,57.67567995
50,0.447935833,9.67523,59.30097197
51,0.448186111,9.678233333,60.36874885
52,0.448437778,9.681253333,60.40269597
53,0.44869,9.68428,56.59052112
54,0.449071944,9.688863333,52.27788111
55,0.449435278,9.693223333,52.12929586
56,0.449684722,9.696216667,51.8788427
57,0.449933333,9.6992,51.31717011
58,0.450185,9.70111,49.66647532
59,0.450436944,9.702621667,47.48239867
60,0.450823611,9.704941667,45.71654535
61,0.451188889,9.707133333,45.01955258
62,0.451439444,9.708636667,45.10992937
63,0.451687778,9.710126667,44.4819198
64,0.451935556,9.711613333,46.75701172
65,0.452184167,9.713105,44.77678158
66,0.452560278,9.715361667,42.7040697
67,0.452923056,9.717538333,41.8885169
68,0.453171667,9.71903,41.83711618
69,0.453421389,9.720528333,41.38441922
70,0.453671389,9.722028333,39.60070725
71,0.453919167,9.723515,38.81951204
72,0.4542975,9.725785,37.88149396
73,0.45466,9.72796,39.06337115
74,0.454906944,9.729441667,37.26773537
75,0.455158056,9.730948333,37.2558373
76,0.455407778,9.732446667,33.74267666
77,0.455653611,9.733921667,33.8286467
78,0.456034444,9.736206667,33.45559267
79,0.456398889,9.738393333,31.45325252
80,0.4566475,9.739885,33.67496726
81,0.4569,9.7414,31.55737258
82,0.457159444,9.742956667,31.48596776
83,0.4574125,9.744475,30.76843148
84,0.45779,9.74674,30.40675915
85,0.458154444,9.748926667,30.41858488
86,0.458405556,9.750433333,32.93574144
87,0.458656944,9.751941667,36.02991145
88,0.458915278,9.753491667,38.59895321
89,0.459165,9.75499,42.36090634
90,0.459544444,9.757266667,46.26397302
91,0.459909444,9.759456667,43.26629301
92,0.460159167,9.760955,42.84612966
93,0.460407778,9.762446667,45.17798954
94,0.460656944,9.763941667,40.08124925
95,0.460907778,9.765446667,37.26070595
96,0.461281389,9.767688333,33.87291308
97,0.461643056,9.769858333,31.02064089
98,0.461890556,9.771343333,29.69053851
99,0.462140833,9.772845,33.67881239
100,0.462393333,9.77436,33.96630776
101,0.462644722,9.775868333,34.14242515
102,0.463030278,9.778181667,34.3885303
103,0.4633975,9.780385,31.01294361
104,0.463651389,9.781908333,29.01369825
105,0.4639,9.7834,26.81799795
106,0.464154167,9.784925,29.63566745
107,0.464407222,9.786443333,30.16273948
108,0.464785556,9.788713333,30.92705995
109,0.465143611,9.790861667,29.5951394
110,0.465391389,9.792348333,28.51467268
111,0.465639722,9.793838333,27.71757835
112,0.4658875,9.795325,28.14363036
113,0.466137778,9.796826667,30.94721221
114,0.466516111,9.799096667,33.40355727
115,0.466877222,9.8,29.95714275
116,0.467131111,9.8,32.16552167
117,0.467384167,9.8,32.26370307
118,0.4676375,9.8,32.26050805
119,0.467889444,9.8,29.83762577
120,0.468274167,9.8,27.57895697
121,0.468640278,9.8,28.03476207
122,0.468888056,9.8,31.52139345
123,0.469139444,9.8,36.95885231
124,0.469391667,9.8,38.04343007
125,0.469642778,9.8,39.45284006
126,0.470025,9.8,40.51852254
127,0.470391111,9.8,37.69331298
128,0.470636111,9.8,34.86908699
129,0.470885,9.8,32.82347335
130,0.471136944,9.8,29.80609382
131,0.471388333,9.8,29.68296734
132,0.471770278,9.8,29.6624169
133,0.4721375,9.8,31.27420601
134,0.472390556,9.8,34.90477419
135,0.472639167,9.8,37.4530436
136,0.472893056,9.8,38.19696519
137,0.473146111,9.8,41.51401046
138,0.473533611,9.8,45.34043328
139,0.473899167,9.8,42.53805653
140,0.474151389,9.8,44.02347081
141,0.474403333,9.8,47.15618694
142,0.474651944,9.8,45.12056795
143,0.474901667,9.8,44.33348929
144,0.475283611,9.8,43.16983896
145,0.475651389,9.8,45.59481319
146,0.475898611,9.8,48.38951097
147,0.476149722,9.8,46.81869234
148,0.476399167,9.8,48.57902263
149,0.476648333,9.8,50.64966585
150,0.477030556,9.8,52.63235372
151,0.477396111,9.8,53.74104728
152,0.477643611,9.8,54.73480898
153,0.477894167,9.8,57.35782076
154,0.478148056,9.8,59.21171567
155,0.478399444,9.8,62.8216281
156,0.478788889,9.8,66.36716185
157,0.479158333,9.8,68.41092028
158,0.479408889,9.8,72.13564845
159,0.479658333,9.8,72.32553397
160,0.479909722,9.8,72.77819992
161,0.480161111,9.8,72.24862049
162,0.480543611,9.8,71.34500211
163,0.480910556,9.8,71.10975549
164,0.481158056,9.8,68.79967828
165,0.48141,9.8,69.19044926
166,0.481657778,9.8,71.05478622
167,0.48191,9.8,71.20271512
168,0.482288056,9.8,71.33612203
169,0.482648889,9.8,72.39230374
170,0.482897778,9.8,75.56523443
171,0.483147222,9.8,76.41769617
172,0.483395833,9.8,74.75566392
173,0.483646111,9.8,74.81186561
174,0.4840325,9.8,75.09882083
175,0.484399167,9.8,73.79158406
176,0.48465,9.8,74.19090613
177,0.484898611,9.8,75.29298755
178,0.48515,9.8,74.62275139
179,0.485398889,9.8,71.48191459
180,0.485788056,9.8,67.95702452
181,0.486158056,9.8,68.98390716
182,0.486404722,9.8,69.17759372
183,0.486653056,9.8,69.22418292
184,0.486906111,9.8,67.48235292
185,0.4871575,9.8,65.96729363
186,0.487545833,9.8,64.57374439
187,0.487911111,9.8,63.3745937
188,0.488158056,9.8,64.12332472
189,0.488403889,9.8,62.28946559
190,0.488654167,9.8,63.42555634
191,0.488908333,9.8,64.50217437
192,0.489284722,9.8,65.05090737
193,0.489643056,9.8,64.03052701
194,0.489890556,9.8,65.35342778
195,0.490139167,9.8,65.94570032
196,0.490389167,9.8,65.12258824
197,0.49064,9.8,65.5561548
198,0.491020833,9.8,66.51296181
199,0.491382778,9.8,69.06139613
200,0.491631389,9.8,70.46878137
201,0.491884167,9.8,68.06728335
202,0.492136389,9.8,66.43915907
203,0.492387778,9.8,67.40810927
204,0.492776111,9.8,68.87555646
205,0.493144444,9.8,67.15653006
206,0.493392222,9.8,68.70779107
207,0.493639722,9.8,70.29878345
208,0.49389,9.8,73.86770967
209,0.494139444,9.8,76.82315056
210,0.494518056,9.8,79.14348138
211,0.494878056,9.8,75.81456884
212,0.49513,9.8,76.14177031
213,0.495379444,9.8,77.97727815
214,0.495627778,9.8,72.86733499
215,0.495880278,9.8,72.03824063
216,0.496268333,9.8,71.22652478
217,0.496636944,9.8,69.7257707
218,0.496886389,9.8,69.30169959
219,0.4971375,9.8,69.35994414
220,0.497386944,9.8,73.99587278
221,0.497637222,9.8,74.94069753
222,0.4980125,9.8,75.12450696
223,0.498373056,9.8,73.16220702
224,0.498624167,9.8,72.48473551
225,0.498873611,9.8,70.05539934
226,0.499123056,9.8,65.66181847
227,0.4993725,9.8,62.15883963
228,0.499758333,9.8,58.62912981
229,0.500127222,9.801526667,58.27317252
230,0.500378611,9.804543333,57.72383629
231,0.500630833,9.80757,55.30554358
232,0.500883611,9.810603333,56.58786882
233,0.501136111,9.813633333,57.97820601
234,0.501515278,9.818183333,59.22308688
235,0.501878056,9.822536667,57.94639221
236,0.502125278,9.825503333,60.41137959
237,0.502371389,9.828456667,61.18701212
238,0.502623333,9.83148,62.09692861
239,0.502873889,9.834486667,61.27250344
240,0.503261389,9.839136667,61.0854581
241,0.503628611,9.843543333,63.7803112
242,0.503880833,9.84657,68.70862575
243,0.504131389,9.849576667,71.33090813
244,0.504381667,9.85258,70.23421472
245,0.504634444,9.855613333,73.51487307
246,0.505011389,9.860136667,76.61500823
247,0.505370278,9.864443333,74.48418568
248,0.505620556,9.867446667,72.12769162
249,0.50587,9.87044,72.30370996
250,0.506123333,9.87348,69.74797922
251,0.506376389,9.876516667,67.09634967
252,0.506763889,9.881166667,64.17506222
253,0.507131944,9.885583333,64.62874335
254,0.507384167,9.88861,68.99014662
255,0.507635556,9.891626667,68.45882059
256,0.507886944,9.894643333,67.97511736
257,0.508139722,9.897676667,71.0778279
258,0.5085175,9.90221,74.70228755
259,0.508875278,9.906503333,73.74758224
260,0.509126667,9.90952,73.73272459
261,0.509379167,9.91255,74.01482583
262,0.509630278,9.915563333,70.39808082
263,0.509881389,9.918576667,70.94868682
264,0.5102625,9.92315,70.96885878
265,0.510625278,9.927503333,69.45589917
266,0.510872778,9.930473333,69.1450266
267,0.511121389,9.933456667,67.66637208
268,0.511370833,9.93645,67.91156523
269,0.511621944,9.939463333,69.63827923
270,0.512005833,9.94407,70.73419302
271,0.512370278,9.948443333,69.16740357
272,0.512617222,9.951406667,66.59909716
273,0.512867222,9.954406667,65.76997525
274,0.513119722,9.957436667,63.18436554
275,0.513369167,9.96043,64.10920573
276,0.513752222,9.965026667,65.39239781
277,0.514116389,9.969396667,65.57175725
278,0.514368056,9.972416667,66.61691939
279,0.514618333,9.97542,65.42158267
280,0.514869722,9.978436667,64.01857051
281,0.515118889,9.981426667,64.54676143
282,0.515503611,9.986043333,65.06786857
283,0.515871111,9.990453333,65.61102425
284,0.516121111,9.993453333,67.32042532
285,0.516370556,9.996446667,68.87073304
286,0.516621111,9.999453333,70.35585329
287,0.516872222,10.00246667,71.39256105
288,0.517257778,10.00709333,72.17922459
289,0.517627222,10.01152667,70.17269235
290,0.517873889,10.01448667,71.65337965
291,0.518128611,10.01754333,74.38386615
292,0.518382778,10.02059333,72.93022157
293,0.518635,10.02362,75.16998406
294,0.519014444,10.02817333,77.55475643
295,0.519378056,10.03253667,77.26736493
296,0.51963,10.03556,78.22126883
297,0.519878611,10.03854333,79.21413619
298,0.520130556,10.04156667,79.21843064
299,0.520383056,10.04459667,76.59557131
300,0.520767778,10.04921333,73.5919885
301,0.521131667,10.05358,73.52320275
302,0.52138,10.05656,74.51755613
303,0.521625556,10.05950667,74.00878531
304,0.521876944,10.06252333,71.55771214
305,0.522127222,10.06552667,69.22525321
306,0.522513889,10.07016667,67.46236637
307,0.522878611,10.07454333,66.62221367
308,0.523128611,10.07754333,66.69940877
309,0.5233775,10.08053,68.30434772
310,0.523624722,10.08349667,70.09506136
311,0.523871667,10.08646,73.53346657
312,0.524263611,10.09116333,76.10683525
313,0.524634722,10.09561667,75.50373809
314,0.524881667,10.09858,77.82808367
315,0.525132778,10.10159333,80.37028036
316,0.525383333,10.1046,81.46114803
317,0.525639722,10.10767667,79.96149127
318,0.526023611,10.11228333,78.81123946
319,0.526387222,10.11664667,80.49346732
320,0.526638611,10.11966333,80.47208469
321,0.526888611,10.12266333,81.70671524
322,0.52714,10.12568,81.08774264
323,0.527389444,10.12867333,82.69243991
324,0.527774167,10.13329,84.81771362
325,0.528139722,10.13767667,81.94016195
326,0.528391111,10.14069333,79.29508656
327,0.528641389,10.14369667,78.90028824
328,0.528891111,10.14669333,79.92543701
329,0.529141944,10.14970333,78.37671649
330,0.529523056,10.15427667,75.89153245
331,0.529890833,10.15869,76.46392562
332,0.530142778,10.16171333,78.07888223
333,0.530396111,10.16475333,79.58625654
334,0.530651944,10.16782333,81.50993085
335,0.530906389,10.17087667,84.20792759
336,0.531284167,10.17541,87.37686547
337,0.531642222,10.17970667,85.88498823
338,0.531889722,10.18267667,84.28264086
339,0.532139167,10.18567,79.93002704
340,0.532390556,10.18868667,82.90523945
341,0.532638056,10.19165667,81.42338074
342,0.533013056,10.19615667,79.39374436
343,0.533371667,10.20023,80.00155843
344,0.533621389,10.20172833,78.96087155
345,0.533872778,10.20323667,81.44942591
346,0.534126667,10.20476,78.67030233
347,0.534376944,10.20626167,76.14011773
348,0.534761667,10.20857,73.25789601
349,0.535130833,10.210785,69.70264029
350,0.535383056,10.21229833,71.9519329
351,0.535633333,10.2138,66.99905384
352,0.5358875,10.215325,68.70456901
353,0.536136111,10.21681667,68.83446226
354,0.536514167,10.219085,68.965086
355,0.536876944,10.22126167,71.1896234
356,0.537125833,10.222755,74.41217023
357,0.537375,10.22425,74.23219934
358,0.537630556,10.22578333,74.23631895
359,0.537881389,10.22728833,74.6451198
360,0.538264722,10.22958833,75.42547848
361,0.538628056,10.23176833,76.21004378
362,0.538875278,10.23325167,77.74406755
363,0.539125556,10.23475333,75.91917331
364,0.539378611,10.23627167,74.21228748
365,0.539629167,10.237775,77.41956298
366,0.540009444,10.24005667,80.38361859
367,0.540374722,10.24224833,78.12313052
368,0.540622778,10.24373667,78.1388074
369,0.540871111,10.24522667,78.28545566
370,0.541118611,10.24671167,78.29675774
371,0.541366944,10.24820167,79.37435938
372,0.541747222,10.25048333,80.26319461
373,0.542108333,10.25265,81.38332484
374,0.542358889,10.25415333,83.52808166
375,0.542609722,10.25565833,80.40348696
376,0.542859444,10.25715667,77.5621122
377,0.543108611,10.25865167,76.20150432
378,0.543490833,10.260945,74.84521848
379,0.543859722,10.26315833,70.46948432
380,0.544111389,10.26466833,65.34187357
381,0.544361667,10.26617,63.78018175
382,0.544611944,10.26767167,60.35445436
383,0.544866667,10.2692,58.69526506
384,0.545255278,10.27153167,56.81826778
385,0.5456225,10.273735,55.32493242
386,0.545871111,10.27522667,53.28203841
387,0.546123056,10.27673833,55.32462323
388,0.546375556,10.27825333,56.52877955
389,0.546623889,10.27974333,59.74391032
390,0.547005833,10.282035,62.65434837
391,0.547370278,10.28422167,59.41470357
392,0.547618889,10.28571333,57.53546838
393,0.547868333,10.28721,56.30892027
394,0.548117778,10.28870667,51.8020683
395,0.548371944,10.29023167,52.1059199
396,0.548763056,10.29257833,52.495907
397,0.549132222,10.29479333,48.82752006
398,0.549379722,10.29627833,46.60041828
399,0.549631667,10.29779,47.06004083
400,0.549886111,10.29931667,44.15013233
401,0.550143611,10.3,45.45224647
402,0.550523056,10.3,47.39276122
403,0.550888333,10.3,48.29213092
404,0.551138056,10.3,50.87229576
405,0.551391944,10.3,51.81951599
406,0.551642222,10.3,53.05575048
407,0.551891667,10.3,56.40359644
408,0.552284722,10.3,59.54029297
409,0.552653611,10.3,57.29801324
410,0.552903333,10.3,57.91059991
411,0.553155278,10.3,60.24274716
412,0.553404722,10.3,61.99387436
413,0.553657222,10.3,63.10754382
414,0.554047222,10.3,63.74779206
415,0.554413611,10.3,65.65078552
416,0.554661389,10.3,67.66480112
417,0.5549125,10.3,69.31475047
418,0.555168333,10.3,68.72465119
419,0.555420833,10.3,67.28881564
420,0.555805278,10.3,65.85714397
421,0.556169167,10.3,63.34271906
422,0.556416667,10.3,63.18736516
423,0.556664444,10.3,61.73238319
424,0.556910833,10.3,59.05040101
425,0.557161111,10.3,54.84172897
426,0.557543056,10.3,51.18141517
427,0.5579075,10.3,47.83301124
428,0.558158056,10.3,43.66865976
429,0.5584075,10.3,45.43930017
430,0.558660556,10.3,46.61588977
431,0.558910278,10.3,49.38925092
432,0.559291111,10.3,51.85929387
433,0.559653889,10.3,50.24252561
434,0.559902222,10.3,49.264735
435,0.560150833,10.3,51.46579936
436,0.560399722,10.3,49.96187988
437,0.560648056,10.3,51.62243475
438,0.5610375,10.3,52.8936056
439,0.561404722,10.3,53.75905154
440,0.561655833,10.3,55.4631606
441,0.561908056,10.3,56.47266033
442,0.5621575,10.3,55.29607661
443,0.562408611,10.3,55.99593154
444,0.562786944,10.3,56.97838046
445,0.563147222,10.3,53.46394859
446,0.5633975,10.3,52.76750502
447,0.563647778,10.3,51.29410502
448,0.563898333,10.3,51.97696747
449,0.564149444,10.3,48.22168564
450,0.564533889,10.3,44.00568457
451,0.564900833,10.3,44.13188385
452,0.565151944,10.3,45.56890518
453,0.565401111,10.3,48.13305455
454,0.565648056,10.3,48.35572436
455,0.565895556,10.3,49.40356633
456,0.5662825,10.3,50.73922423
457,0.5666525,10.3,52.43588765
458,0.566899167,10.298605,50.84763353
459,0.567146389,10.29712167,51.12673504
460,0.567395833,10.295625,52.09483787
461,0.567646389,10.29412167,48.92167251
462,0.568033889,10.29179667,45.3407933
463,0.568403056,10.28958167,48.46240223
464,0.568653333,10.28808,51.58196696
465,0.568901944,10.28658833,55.95217305
466,0.569153889,10.28507667,58.24766689
467,0.569405556,10.28356667,58.14591866
468,0.569786667,10.28128,58.30218597
469,0.570148333,10.27911,54.26607264
470,0.570397778,10.27761333,57.78896878
471,0.570644444,10.27613333,54.59388898
472,0.570890833,10.274655,55.36540094
473,0.571139722,10.27316167,55.1441127
474,0.571516111,10.27090333,54.51355918
475,0.571876389,10.26874167,57.16179396
476,0.572123611,10.26725833,62.6501242
477,0.572369444,10.26578333,63.25512665
478,0.572624167,10.264255,61.84491718
479,0.572872222,10.26276667,63.79652266
480,0.573252222,10.26048667,65.85193856
481,0.573615,10.25831,66.33743418
482,0.5738625,10.256825,68.51111544
483,0.574113056,10.25532167,66.96904598
484,0.5743625,10.253825,64.57301923
485,0.57461,10.25234,64.83272239
486,0.574999167,10.250005,64.882934
487,0.57537,10.24778,65.82704859
488,0.575617778,10.24629333,66.10266348
489,0.57587,10.24478,63.92603643
490,0.576118611,10.24328833,63.61029173
491,0.576368056,10.24179167,67.00042873
492,0.576761111,10.23943333,70.26320849
493,0.577130278,10.23721833,68.45343489
494,0.5773825,10.235705,70.57986951
495,0.5776325,10.234205,70.65607945
496,0.577883056,10.23270167,69.99800531
497,0.578132222,10.23120667,67.27689889
498,0.578506944,10.22895833,64.42268079
499,0.578866111,10.22680333,59.8058202
500,0.579114722,10.22531167,54.23991667
501,0.5793625,10.223825,52.69367893
502,0.57961,10.22234,50.44278284
503,0.5798625,10.220825,49.82276591
504,0.580243333,10.21854,49.01237965
505,0.580608889,10.21634667,47.17364508
506,0.580861944,10.21482833,47.6800427
507,0.581111944,10.21332833,49.73838397
508,0.581360556,10.21183667,50.88794175
509,0.581613056,10.21032167,54.1273607
510,0.582001111,10.20799333,57.56200416
511,0.582365278,10.20580833,55.24445676
512,0.582618056,10.20429167,57.48551188
513,0.5828675,10.202795,59.50878754
514,0.583115278,10.20130833,58.61844705
515,0.583361111,10.20016667,59.27913876
516,0.583739167,10.202435,59.88572342
517,0.584101944,10.20461167,57.97229879
518,0.584351667,10.20611,59.30524587
519,0.584600833,10.207605,61.05453534
520,0.584854722,10.20912833,59.39924832
521,0.5851025,10.210615,60.50758201
522,0.585483611,10.21290167,61.93225475
523,0.5858475,10.215085,62.9842968
524,0.5860975,10.216585,65.89455643
525,0.586346944,10.21808167,64.52778165
526,0.586593889,10.21956333,64.7057806
527,0.586843889,10.22106333,69.74835434
528,0.587229722,10.22337833,74.80871332
529,0.587598056,10.22558833,75.7586001
530,0.587848056,10.22708833,76.97946905
531,0.588096667,10.22858,77.14308913
532,0.588348056,10.23008833,76.9590624
533,0.588601389,10.23160833,76.20824947
534,0.588985278,10.23391167,75.60111882
535,0.589348611,10.23609167,75.18289096
536,0.589600833,10.237605,75.77795821
