,Time,Temperature,Vmax
1,0.200625,9.8,1436.255453
2,0.200987778,9.8,1441.146176
3,0.2012375,9.8,1444.461657
4,0.201486667,9.8,1442.323519
5,0.201741667,9.8,1441.570437
6,0.201990278,9.8,1440.960252
7,0.202369444,9.8,1439.723012
8,0.202731944,9.8,1436.83442
9,0.202981944,9.8,1437.530095
10,0.203235556,9.8,1434.847808
11,0.203490556,9.8,1433.708143
12,0.203743889,9.8,1430.931465
13,0.204119444,9.8,1426.342982
14,0.204475556,9.8,1427.437102
15,0.204724167,9.8,1427.369511
16,0.204972778,9.8,1427.622115
17,0.205224167,9.8,1428.730027
18,0.205474444,9.8,1426.839609
19,0.205843611,9.8,1423.452611
20,0.206201667,9.8,1424.424433
21,0.206449444,9.8,1421.859069
22,0.206696944,9.8,1419.59588
23,0.206948056,9.8,1419.851935
24,0.207204722,9.8,1420.709176
25,0.207575833,9.8,1420.213437
26,0.207931389,9.8,1419.575052
27,0.208183611,9.8,1418.477301
28,0.208432222,9.8,1415.999367
29,0.208686944,9.8,1416.105588
30,0.208939444,9.8,1415.388319
31,0.209303889,9.8,1413.486748
32,0.2096575,9.8,1413.740896
33,0.209908056,9.8,1414.440782
34,0.21016,9.8,1412.885385
35,0.210411389,9.8,1412.33307
36,0.210665,9.8,1410.845518
37,0.211027222,9.8,1407.723682
38,0.2113825,9.8,1405.546899
39,0.211632778,9.8,1403.593147
40,0.211881389,9.8,1402.237134
41,0.212130833,9.8,1398.40167
42,0.212383056,9.8,1395.957286
43,0.212753056,9.8,1391.217748
44,0.2131125,9.8,1388.999381
45,0.2133625,9.8,1385.782891
46,0.213614722,9.8,1384.35335
47,0.213867222,9.8,1381.53815
48,0.214120278,9.8,1380.544785
49,0.214482778,9.8,1378.288799
50,0.2148375,9.8,1377.50372
51,0.215089722,9.8,1374.791006
52,0.215341111,9.8,1374.986843
53,0.215591111,9.8,1373.301543
54,0.215841944,9.8,1368.994352
55,0.216208056,9.8,1363.469383
56,0.21656,9.8,1363.902784
57,0.21681,9.80086,1365.97156
58,0.2170625,9.802375,1364.663853
59,0.217316389,9.803898333,1360.323806
60,0.217567778,9.805406667,1360.04318
61,0.217936667,9.80762,1358.670826
62,0.218293056,9.809758333,1360.347707
63,0.218543611,9.811261667,1364.070022
64,0.218791389,9.812748333,1364.752528
65,0.219039722,9.814238333,1363.692558
66,0.219291667,9.81575,1363.076467
67,0.219665556,9.817993333,1360.548357
68,0.220020833,9.820125,1356.130087
69,0.220269722,9.821618333,1352.953212
70,0.220522778,9.823136667,1349.485944
71,0.220770278,9.824621667,1348.168347
72,0.221019722,9.826118333,1345.82494
73,0.221391667,9.82835,1341.81783
74,0.221750556,9.830503333,1339.765129
75,0.222003056,9.832018333,1338.930709
76,0.222254444,9.833526667,1337.414905
77,0.222506667,9.83504,1333.676417
78,0.222753056,9.836518333,1328.924302
79,0.223118889,9.838713333,1322.892401
80,0.223475278,9.840851667,1323.158333
81,0.223726389,9.842358333,1321.133703
82,0.223978611,9.843871667,1317.193493
83,0.22423,9.84538,1318.308131
84,0.224483611,9.846901667,1315.551533
85,0.224860278,9.849161667,1312.04332
86,0.225222778,9.851336667,1310.807602
87,0.225471667,9.85283,1311.803711
88,0.225722778,9.854336667,1311.227202
89,0.225971389,9.855828333,1313.281166
90,0.22622,9.85732,1313.176814
91,0.226586111,9.859516667,1311.305443
92,0.226937222,9.861623333,1311.735908
93,0.2271875,9.863125,1311.963625
94,0.227439167,9.864635,1312.83318
95,0.227688611,9.866131667,1312.657948
96,0.2279425,9.867655,1311.479985
97,0.228308611,9.869851667,1309.303777
98,0.2286625,9.871975,1306.997318
99,0.228912778,9.873476667,1306.058292
100,0.229165,9.87499,1308.106839
101,0.229415,9.87649,1310.197195
102,0.229663056,9.877978333,1311.082796
103,0.230030278,9.880181667,1311.001394
104,0.230384167,9.882305,1313.774184
105,0.230633333,9.8838,1318.723822
106,0.230881944,9.885291667,1321.566604
107,0.231131389,9.886788333,1322.092688
108,0.231381389,9.888288333,1324.571488
109,0.231752778,9.890516667,1325.366733
110,0.232108889,9.892653333,1328.263629
111,0.232358611,9.894151667,1331.113556
112,0.232606944,9.895641667,1328.630848
113,0.232856667,9.89714,1328.942656
114,0.233104722,9.898628333,1328.860882
115,0.2334775,9.9,1327.069694
116,0.233831389,9.9,1327.868488
117,0.234077222,9.9,1329.214172
118,0.234326667,9.9,1333.95521
119,0.234575833,9.9,1336.784337
120,0.234828611,9.9,1338.373021
121,0.235198056,9.9,1338.743079
122,0.235556667,9.9,1341.873101
123,0.235809722,9.9,1346.555272
124,0.236061111,9.9,1349.241935
125,0.236313056,9.9,1352.172983
126,0.236566111,9.9,1355.337975
127,0.236934167,9.9,1357.428842
128,0.237286389,9.9,1355.562132
129,0.237534722,9.9,1354.819195
130,0.237783333,9.9,1351.547367
131,0.23803,9.9,1349.021555
132,0.238278333,9.9,1349.024333
133,0.238645,9.9,1347.068427
134,0.2389975,9.9,1349.804741
135,0.239246389,9.9,1350.550323
136,0.239496389,9.9,1349.709754
137,0.239744444,9.9,1349.672635
138,0.239991667,9.9,1350.6162
139,0.240361667,9.9,1350.429036
140,0.24072,9.9,1353.441049
141,0.240968611,9.9,1354.079974
142,0.241218333,9.9,1354.549377
143,0.24147,9.9,1356.797527
144,0.241717222,9.9,1359.395879
145,0.242081667,9.9,1360.003537
146,0.242435833,9.9,1360.086472
147,0.242689444,9.9,1362.266098
148,0.242942222,9.9,1363.789526
149,0.243191944,9.9,1367.371384
150,0.243442222,9.9,1369.877577
151,0.243805833,9.9,1371.014086
152,0.2441575,9.9,1372.00767
153,0.244406389,9.9,1371.947646
154,0.244654722,9.9,1373.83553
155,0.244910556,9.9,1374.911562
156,0.245160833,9.9,1373.912649
157,0.245528333,9.9,1371.565963
158,0.245890833,9.9,1369.871213
159,0.246141111,9.9,1370.314672
160,0.24639,9.9,1370.796768
161,0.246639167,9.9,1369.844351
162,0.246887778,9.9,1369.029714
163,0.247254167,9.9,1365.566773
164,0.247606944,9.9,1365.767973
165,0.247854722,9.9,1365.468267
166,0.248103889,9.9,1364.516417
167,0.248352778,9.9,1360.814611
168,0.248603056,9.9,1358.915642
169,0.248975556,9.9,1357.091927
170,0.249335,9.9,1360.383223
171,0.249588056,9.9,1360.102963
172,0.249841944,9.9,1360.153652
173,0.250094444,9.899433333,1358.525363
174,0.250347222,9.897916667,1357.647
175,0.250714722,9.895711667,1354.656533
176,0.2510675,9.893595,1352.412955
177,0.251317778,9.892093333,1353.616368
178,0.251568333,9.89059,1352.424655
179,0.251819444,9.889083333,1352.040745
180,0.252069444,9.887583333,1354.004512
181,0.252436389,9.885381667,1354.660005
182,0.252794167,9.883235,1356.004592
183,0.253045833,9.881725,1355.892949
184,0.253298611,9.880208333,1354.00057
185,0.253554444,9.878673333,1351.749788
186,0.253806944,9.877158333,1349.772021
187,0.254175,9.87495,1346.516938
188,0.254527778,9.872833333,1345.205331
189,0.254776111,9.871343333,1342.727144
190,0.255023889,9.869856667,1339.258546
191,0.2552725,9.868365,1338.860306
192,0.255520833,9.866875,1334.301922
193,0.255892778,9.864643333,1328.300255
194,0.256255833,9.862465,1327.322092
195,0.256504167,9.860975,1324.67579
196,0.256754444,9.859473333,1323.677926
197,0.257003889,9.857976667,1320.970547
198,0.257252222,9.856486667,1318.247197
199,0.257626111,9.854243333,1313.278836
200,0.257988889,9.852066667,1314.022214
201,0.258242222,9.850546667,1310.720282
202,0.258491667,9.84905,1305.23044
203,0.258744722,9.847531667,1307.447167
204,0.259000278,9.845998333,1303.751479
205,0.259364167,9.843815,1299.548543
206,0.259717778,9.841693333,1298.154803
207,0.259969167,9.840185,1297.328003
208,0.260219444,9.838683333,1295.297082
209,0.260469444,9.837183333,1295.612053
210,0.26072,9.83568,1290.983417
211,0.261085556,9.833486667,1284.350959
212,0.261438611,9.831368333,1282.01243
213,0.261687778,9.829873333,1281.352861
214,0.26194,9.82836,1281.106077
215,0.262189444,9.826863333,1282.488212
216,0.262439167,9.825365,1281.818763
217,0.262808056,9.823151667,1280.208759
218,0.2631625,9.821025,1280.036236
219,0.263411111,9.819533333,1278.155151
220,0.263661389,9.818031667,1280.416646
221,0.263910278,9.816538333,1283.222992
222,0.264160278,9.815038333,1284.834665
223,0.264529444,9.812823333,1285.634127
224,0.264886944,9.810678333,1285.936547
225,0.265136111,9.809183333,1288.719173
226,0.265384722,9.807691667,1288.393483
227,0.265633056,9.806201667,1285.320654
228,0.265881944,9.804708333,1285.193736
229,0.26625,9.8025,1283.664162
230,0.266605833,9.800365,1282.629729
231,0.266856944,9.801141667,1283.884462
232,0.267109167,9.802655,1280.534325
233,0.267361944,9.804171667,1275.836187
234,0.267619722,9.805718333,1274.821011
235,0.267990833,9.807945,1272.409739
236,0.268346389,9.810078333,1271.600652
237,0.268596389,9.811578333,1271.502853
238,0.268846667,9.81308,1271.306103
239,0.269097222,9.814583333,1273.15256
240,0.269348611,9.816091667,1272.477999
241,0.2697225,9.818335,1270.420466
242,0.270082222,9.820493333,1269.899697
243,0.270331667,9.82199,1269.339859
244,0.270581111,9.823486667,1272.085441
245,0.270830833,9.824985,1272.049536
246,0.271085,9.82651,1272.42479
247,0.271464167,9.828785,1270.997914
248,0.2718275,9.830965,1269.862629
249,0.272076389,9.832458333,1267.580753
250,0.272328056,9.833968333,1266.074511
251,0.272576111,9.835456667,1263.55524
252,0.272825278,9.836951667,1261.925892
253,0.273196389,9.839178333,1259.358062
254,0.273554444,9.841326667,1260.965998
255,0.273803333,9.84282,1259.309987
256,0.274050833,9.844305,1258.363635
257,0.2743,9.8458,1255.936786
258,0.274548611,9.847291667,1253.173766
259,0.274921667,9.84953,1249.203497
260,0.275281667,9.85169,1246.937039
261,0.275529444,9.853176667,1247.925842
262,0.275783056,9.854698333,1247.880983
263,0.276036111,9.856216667,1249.996546
264,0.2762875,9.857725,1253.239635
265,0.276650278,9.859901667,1255.36156
266,0.277003889,9.862023333,1254.89925
267,0.277255278,9.863531667,1260.086106
268,0.277506389,9.865038333,1262.1945
269,0.277756111,9.866536667,1265.913351
270,0.278005278,9.868031667,1270.368371
271,0.278370278,9.870221667,1272.24626
272,0.278726111,9.872356667,1276.328521
273,0.2789775,9.873865,1274.5317
274,0.279228056,9.875368333,1276.88431
275,0.279480833,9.876885,1276.077616
276,0.2797325,9.878395,1276.146775
277,0.2801,9.8806,1276.138029
278,0.280457778,9.882746667,1274.48375
279,0.280705556,9.884233333,1274.85129
280,0.280955,9.88573,1276.490689
281,0.281208056,9.887248333,1277.119624
282,0.281459167,9.888755,1277.163069
283,0.281830556,9.890983333,1274.827397
284,0.282185556,9.893113333,1273.326547
285,0.282436944,9.894621667,1272.467008
286,0.282689444,9.896136667,1272.350721
287,0.282937778,9.897626667,1270.836963
288,0.283185278,9.899111667,1270.37252
289,0.283555556,9.9,1269.716478
290,0.283914444,9.9,1273.872326
291,0.284163889,9.9,1273.771091
292,0.284411944,9.9,1274.953585
293,0.284666389,9.9,1274.83792
294,0.284918056,9.9,1274.435603
295,0.285288056,9.9,1271.422011
296,0.285645,9.9,1269.139142
297,0.285896389,9.9,1270.547831
298,0.286146944,9.9,1270.566604
299,0.286400556,9.9,1269.937983
300,0.286649167,9.9,1270.965856
301,0.287022222,9.9,1270.942289
302,0.287378333,9.9,1268.984566
303,0.287628611,9.9,1268.756219
304,0.287881111,9.9,1270.603508
305,0.288135833,9.9,1271.211547
306,0.28839,9.9,1269.118287
307,0.288754722,9.9,1266.499009
308,0.289103889,9.9,1264.882778
309,0.289358611,9.9,1263.036478
310,0.28961,9.9,1264.032319
311,0.289861111,9.9,1264.89003
312,0.2901125,9.9,1263.963213
313,0.290481667,9.9,1261.437695
314,0.290836111,9.9,1261.036562
315,0.291086667,9.9,1259.69871
316,0.291337778,9.9,1261.080249
317,0.291590833,9.9,1258.5642
318,0.291844167,9.9,1258.386789
319,0.292209722,9.9,1256.649858
320,0.292563056,9.9,1260.852447
321,0.292814444,9.9,1261.90927
322,0.293065833,9.9,1260.901384
323,0.293318056,9.9,1264.439338
324,0.293568056,9.9,1266.267889
325,0.293936389,9.9,1266.735228
326,0.294292222,9.9,1267.06447
327,0.294544167,9.9,1265.487848
328,0.294792778,9.9,1266.103156
329,0.295042222,9.9,1264.532069
330,0.295296111,9.9,1261.550653
331,0.295666389,9.9,1256.302023
332,0.296025556,9.9,1251.583335
333,0.296278333,9.9,1250.826903
334,0.296527778,9.9,1250.641538
335,0.296778056,9.9,1251.545373
336,0.297031111,9.9,1252.177528
337,0.297400556,9.9,1252.828274
338,0.297756944,9.9,1255.789019
339,0.298005556,9.9,1256.742639
340,0.298254722,9.9,1260.745649
341,0.298508056,9.9,1264.447621
342,0.298760278,9.9,1267.054056
343,0.299132222,9.9,1267.642964
344,0.299493889,9.9,1267.928194
345,0.299746111,9.9,1267.3377
346,0.299998333,9.9,1266.033362
347,0.300249444,9.9,1263.16608
348,0.300501111,9.9,1263.86026
349,0.300863889,9.9,1263.394805
350,0.301216389,9.9,1263.209183
351,0.3014675,9.9,1262.929711
352,0.301715,9.9,1260.52214
353,0.301963611,9.9,1258.276935
354,0.302214167,9.9,1260.098198
355,0.302585278,9.9,1260.850961
356,0.302938889,9.9,1260.860041
357,0.303184444,9.9,1264.230842
358,0.303435833,9.9,1264.329854
359,0.303685833,9.9,1266.202333
360,0.303942778,9.9,1265.152564
361,0.304308611,9.9,1262.033274
362,0.304661389,9.9,1264.031979
363,0.304911389,9.9,1262.379559
364,0.305161944,9.9,1261.948251
365,0.305410278,9.9,1260.051788
366,0.305665,9.9,1256.394784
367,0.306038056,9.9,1251.148275
368,0.306393333,9.9,1252.607052
369,0.306641111,9.9,1250.75252
370,0.30689,9.9,1251.829501
371,0.307141667,9.9,1250.058946
372,0.307391389,9.9,1248.059477
373,0.307754167,9.9,1245.283356
374,0.308104167,9.9,1242.621314
375,0.308357222,9.9,1240.488793
376,0.308612222,9.9,1242.108654
377,0.308867222,9.9,1242.161074
378,0.309121667,9.9,1239.349158
379,0.309489167,9.9,1235.914964
380,0.309844722,9.9,1231.723217
381,0.310095278,9.9,1232.312435
382,0.310344722,9.9,1229.649839
383,0.310596667,9.9,1227.516364
384,0.310848889,9.9,1227.088032
385,0.311223333,9.9,1225.04273
386,0.311583333,9.9,1221.496388
387,0.311836667,9.9,1222.239405
388,0.312086944,9.9,1220.143901
389,0.312337222,9.9,1219.293247
390,0.312586667,9.9,1220.406824
391,0.312958056,9.9,1220.144462
392,0.313313611,9.9,1221.634946
393,0.313561667,9.9,1221.330348
394,0.313813056,9.9,1222.929244
395,0.314064444,9.9,1220.819426
396,0.314314722,9.9,1221.626874
397,0.314682778,9.9,1221.257802
398,0.315039444,9.9,1218.988594
399,0.315288889,9.9,1218.099168
400,0.315538056,9.9,1218.290738
401,0.315785833,9.9,1216.79756
402,0.316034722,9.9,1213.955898
403,0.316404444,9.9,1209.83298
404,0.316767222,9.899396667,1206.974604
405,0.317018611,9.897888333,1203.925772
406,0.317268889,9.896386667,1204.322823
407,0.317523056,9.894861667,1204.481156
408,0.317773333,9.89336,1204.142737
409,0.318136111,9.891183333,1201.727464
410,0.318488611,9.889068333,1200.198726
411,0.318740833,9.887555,1199.730549
412,0.318997778,9.886013333,1198.779074
413,0.319254722,9.884471667,1198.249658
414,0.319505833,9.882965,1198.030707
415,0.319874722,9.880751667,1196.308442
416,0.320228333,9.87863,1194.058226
417,0.320478611,9.877128333,1192.31181
418,0.3207275,9.875635,1191.792805
419,0.320974167,9.874155,1192.055364
420,0.321226111,9.872643333,1190.543516
421,0.321591944,9.870448333,1188.51399
422,0.321940833,9.868355,1187.013798
423,0.322193056,9.866841667,1184.97046
424,0.322445,9.86533,1187.474121
425,0.322693056,9.863841667,1186.525666
426,0.322947778,9.862313333,1182.610767
427,0.323315278,9.860108333,1177.263364
428,0.323669444,9.857983333,1173.919482
429,0.323916111,9.856503333,1172.408438
430,0.324164722,9.855011667,1174.604539
431,0.324416111,9.853503333,1172.032084
432,0.324668611,9.851988333,1170.456225
433,0.325032778,9.849803333,1167.208126
434,0.325384722,9.847691667,1163.842376
435,0.325635,9.84619,1161.809476
436,0.325883611,9.844698333,1162.797058
437,0.326133056,9.843201667,1160.138237
438,0.326386111,9.841683333,1158.318304
439,0.326753611,9.839478333,1156.48202
440,0.327107778,9.837353333,1158.233154
441,0.327355833,9.835865,1161.374121
442,0.327609444,9.834343333,1160.704818
443,0.327860833,9.832835,1160.642833
444,0.328107778,9.831353333,1163.450732
445,0.3284725,9.829165,1164.68436
446,0.328825278,9.827048333,1167.321865
447,0.3290725,9.825565,1166.830923
448,0.329321389,9.824071667,1168.37525
449,0.329576111,9.822543333,1169.230596
450,0.329825556,9.821046667,1171.283634
451,0.3302,9.8188,1171.598929
452,0.330558333,9.81665,1169.282136
453,0.330808611,9.815148333,1169.89038
454,0.33106,9.81364,1169.20949
455,0.331310556,9.812136667,1170.552559
456,0.331559722,9.810641667,1171.449658
457,0.3319225,9.808465,1171.647954
458,0.3322725,9.806365,1174.343401
459,0.332520278,9.804878333,1174.729307
460,0.332767778,9.803393333,1174.989
461,0.333018889,9.801886667,1175.200227
462,0.333269167,9.800385,1175.132238
463,0.333638611,9.801831667,1173.383302
464,0.333993333,9.80396,1173.277779
465,0.334241667,9.80545,1173.065522
466,0.334490278,9.806941667,1172.415404
467,0.334743056,9.808458333,1171.219667
468,0.334994722,9.809968333,1173.362268
469,0.335364444,9.812186667,1174.315746
470,0.335719167,9.814315,1176.63446
471,0.335966944,9.815801667,1178.196535
472,0.336218056,9.817308333,1178.875409
473,0.336465833,9.818795,1177.930667
474,0.336715278,9.820291667,1178.205075
475,0.337089722,9.822538333,1176.835981
476,0.337454167,9.824725,1174.890039
477,0.337703056,9.826218333,1175.838894
478,0.337955278,9.827731667,1174.796448
479,0.338204444,9.829226667,1175.977906
480,0.338453333,9.83072,1178.521288
481,0.3388175,9.832905,1179.547141
482,0.339168889,9.835013333,1181.886395
483,0.339417222,9.836503333,1181.495648
484,0.339663889,9.837983333,1181.529506
485,0.339913889,9.839483333,1182.255752
486,0.340169167,9.841015,1182.190755
487,0.340535278,9.843211667,1181.854396
488,0.340888333,9.84533,1185.199575
489,0.341136944,9.846821667,1185.08838
490,0.341385278,9.848311667,1187.514966
491,0.341635556,9.849813333,1185.984845
492,0.341887778,9.851326667,1185.878088
493,0.342252222,9.853513333,1184.301426
494,0.342605,9.85563,1183.115009
495,0.342854722,9.857128333,1183.000312
496,0.343103056,9.858618333,1186.138414
497,0.343350833,9.860105,1189.822194
498,0.343602222,9.861613333,1191.45185
499,0.343976944,9.863861667,1192.646539
500,0.344337778,9.866026667,1194.091385
501,0.344588611,9.867531667,1197.107737
502,0.34484,9.86904,1196.219566
503,0.345095,9.87057,1196.712688
504,0.345346111,9.872076667,1196.219761
505,0.345710833,9.874265,1193.700928
506,0.346065556,9.876393333,1193.92224
507,0.346311111,9.877866667,1195.526508
508,0.346559722,9.879358333,1197.263373
509,0.346808611,9.880851667,1198.051489
510,0.347060556,9.882363333,1198.049469
511,0.347420833,9.884525,1197.4884
512,0.347770833,9.886625,1197.579443
513,0.348023611,9.888141667,1199.107643
514,0.348274167,9.889645,1200.877544
515,0.348525,9.89115,1200.962231
516,0.348779444,9.892676667,1203.457346
517,0.349141389,9.894848333,1203.447991
518,0.3494975,9.896985,1202.794188
519,0.349748889,9.898493333,1203.040532
520,0.350000278,9.9,1204.072562
521,0.350250556,9.9,1205.21746
522,0.350501667,9.9,1204.660135
523,0.350862778,9.9,1203.778194
524,0.3512125,9.9,1202.016711
525,0.351463611,9.9,1199.937306
526,0.351713056,9.9,1201.027571
527,0.351962778,9.9,1203.607502
528,0.352215,9.9,1201.408566
529,0.352583333,9.9,1196.267471
530,0.352936667,9.9,1193.028524
531,0.353186389,9.9,1191.730597
532,0.353439444,9.9,1188.493933
533,0.353694444,9.9,1187.083897
534,0.353945556,9.9,1187.051249
535,0.354305833,9.9,1186.472367
536,0.3546575,9.9,1185.018394
537,0.354904167,9.9,1185.216675
538,0.355151667,9.9,1187.679792
539,0.355401111,9.9,1189.050793
540,0.355655278,9.9,1186.888336
541,0.356026111,9.9,1183.841002
542,0.356381667,9.9,1184.563648
543,0.356633889,9.9,1182.216876
544,0.356884167,9.9,1181.810045
545,0.357135278,9.9,1179.493477
546,0.357384167,9.9,1176.68908
547,0.357748889,9.9,1171.95763
548,0.358107778,9.9,1170.740325
549,0.358359722,9.9,1173.413372
550,0.358612222,9.9,1176.864514
551,0.358863611,9.9,1173.849542
552,0.35911,9.9,1173.568591
553,0.359473889,9.9,1171.574561
554,0.359827222,9.9,1166.994764
555,0.360079722,9.9,1163.72801
556,0.360330556,9.9,1165.250205
