,Time,Temperature,Vmax
1,0.317085,9.5,-3.679166769
2,0.317330833,9.5,-4.322298009
3,0.3175775,9.5,-3.013575775
4,0.317826111,9.5,-1.999832733
5,0.318073611,9.5,-0.076949992
6,0.318424722,9.5,1.763199186
7,0.318768056,9.5,2.565838064
8,0.319015556,9.5,3.888569362
9,0.319264167,9.5,4.86181242
10,0.319510278,9.5,5.527485555
11,0.319758889,9.5,5.111428028
12,0.320109444,9.5,4.853745886
13,0.320452222,9.5,4.776220286
14,0.320697778,9.5,4.998367027
15,0.320948056,9.5,2.132333
16,0.321196944,9.5,1.736591718
17,0.321448056,9.5,0.645449046
18,0.321797778,9.5,-0.331412286
19,0.322137778,9.5,-0.189906359
20,0.322387222,9.5,2.160083309
21,0.322636667,9.5,1.952013973
22,0.322885556,9.5,3.357958446
23,0.323135,9.5,2.586134189
24,0.323483889,9.5,1.720907165
25,0.323823889,9.5,3.426217488
26,0.324069722,9.5,3.860066341
27,0.324318056,9.5,5.064956325
28,0.324573056,9.5,7.496191666
29,0.324826111,9.5,9.166043708
30,0.325179167,9.5,10.69343707
31,0.325523333,9.5,9.522047865
32,0.325771111,9.5,9.583791226
33,0.326024167,9.5,9.576103451
34,0.326276944,9.5,6.535513707
35,0.326523056,9.5,5.613529394
36,0.326874167,9.5,4.864999101
37,0.327215833,9.5,3.573130968
38,0.327465278,9.5,4.601607263
39,0.327714722,9.5,6.223145441
40,0.327964167,9.5,6.58056475
41,0.328214444,9.5,4.127981601
42,0.328568889,9.5,1.707893271
43,0.328912778,9.5,1.802579468
44,0.329161944,9.5,4.234042672
45,0.329414167,9.5,5.43000245
46,0.329665556,9.5,7.297891821
47,0.329914722,9.5,8.986323487
48,0.330266389,9.5,10.54084532
49,0.330604444,9.5,10.91704082
50,0.330849444,9.5,10.27030702
51,0.331098056,9.5,13.46075638
52,0.331346667,9.5,14.22287098
53,0.331600556,9.5,15.59771602
54,0.331960556,9.5,16.94197363
55,0.332306111,9.5,16.34592632
56,0.332553889,9.5,17.19971469
57,0.332805,9.5,15.87618086
58,0.333054444,9.5,17.60592999
59,0.333303889,9.5,16.65713724
60,0.333661944,9.51183,15.84103667
61,0.3340075,9.52427,12.91496785
62,0.334258056,9.53329,10.41034913
63,0.334508056,9.54229,8.420596495
64,0.334760556,9.55138,8.358402149
65,0.335014444,9.56052,8.043651549
66,0.335361667,9.57302,7.461254786
67,0.335696944,9.58509,4.222913548
68,0.335943611,9.59397,1.399920809
69,0.336192222,9.60292,1.556345434
70,0.336443333,9.61196,3.608528744
71,0.336691111,9.62088,6.345422431
72,0.337041944,9.63351,9.126489203
73,0.337383611,9.64581,10.00183839
74,0.337631389,9.65473,11.3370138
75,0.33788,9.66368,12.28946334
76,0.338131111,9.67272,10.69677276
77,0.338383611,9.68181,10.45424374
78,0.338735278,9.69447,10.26250722
79,0.339074444,9.70668,8.294731322
80,0.33932,9.71552,6.322709364
81,0.339569167,9.72449,2.324115046
82,0.33982,9.73352,4.425970661
83,0.340068611,9.74247,4.63769486
84,0.340415,9.75494,4.881235985
85,0.340757222,9.76726,6.759047639
86,0.341009444,9.77634,7.660995704
87,0.341259167,9.78533,6.560502416
88,0.341508333,9.7943,6.312852958
89,0.341754167,9.80315,7.647955296
90,0.342108611,9.81591,9.127478615
91,0.342456111,9.82842,9.486016149
92,0.342708056,9.83749,13.0002763
93,0.342956944,9.84645,16.13915792
94,0.343207222,9.85546,16.9955352
95,0.34346,9.86456,17.62955364
96,0.3438075,9.87707,18.43934774
97,0.344140833,9.88907,20.65813359
98,0.344387778,9.89796,19.00547074
99,0.344637778,9.90696,17.66300329
100,0.344890833,9.91607,15.50264921
101,0.345143333,9.92516,14.43404188
102,0.345498889,9.93796,12.83364424
103,0.345847778,9.95052,8.796433559
104,0.346100278,9.95961,5.867543927
105,0.346353056,9.96871,1.809889921
106,0.3466025,9.97769,-0.619329226
107,0.346853889,9.98674,0.691644914
108,0.347205833,9.99941,2.204501362
109,0.347543056,10.01155,2.011913979
110,0.347790556,10.02046,-0.457379268
111,0.348040833,10.02947,-4.116667086
112,0.348289167,10.03841,-2.553950209
113,0.348537778,10.04736,-3.349198057
114,0.348888611,10.05999,-4.136126998
115,0.349229444,10.07226,-4.055366867
116,0.349478333,10.08122,-4.301548329
117,0.349728333,10.09022,-4.041623122
118,0.349975278,10.09911,-3.873381194
119,0.350229167,10.093125,-5.940095718
120,0.350578333,10.08265,-7.874315113
121,0.350917222,10.07248333,-7.96873813
122,0.351166667,10.065,-7.980643657
123,0.351418056,10.05745833,-7.644490703
124,0.351670278,10.04989167,-4.973195004
125,0.351923333,10.0423,-6.721600602
126,0.352276111,10.03171667,-8.573115881
127,0.352620556,10.02138333,-9.810167978
128,0.352871667,10.01385,-7.974926523
129,0.353122222,10.00633333,-9.03120085
130,0.353370833,9.998875,-8.132549111
131,0.35362,9.9914,-11.09425628
132,0.353964444,9.981066667,-13.9131192
133,0.354301667,9.97095,-12.79707725
134,0.354551389,9.963458333,-13.25755785
135,0.354806111,9.955816667,-14.36635928
136,0.355057222,9.948283333,-14.19902264
137,0.355307778,9.940766667,-11.2257793
138,0.355661111,9.930166667,-8.2129961
139,0.356004167,9.919875,-7.574445855
140,0.356254444,9.912366667,-6.089734531
141,0.356503056,9.904908333,-7.653613667
142,0.356753333,9.8974,-7.063555648
143,0.357,9.89,-6.794698269
144,0.357354444,9.879366667,-6.735501885
145,0.357698889,9.869033333,-6.372853551
146,0.357949444,9.861516667,-7.780618737
147,0.358198056,9.854058333,-7.130641428
148,0.3584475,9.846575,-6.611870113
149,0.358696944,9.839091667,-5.313019999
150,0.359047778,9.828566667,-3.771300862
151,0.359389444,9.818316667,-4.818457177
152,0.359638889,9.810833333,-3.956431434
153,0.359888333,9.80335,-3.893496517
154,0.360141667,9.79575,-4.582486842
155,0.360388333,9.78835,-7.826767271
156,0.360744722,9.777658333,-11.05841946
157,0.361088056,9.767358333,-12.48544608
158,0.361336667,9.7599,-14.26880936
159,0.361583611,9.752491667,-13.67007725
160,0.361833889,9.744983333,-15.4052778
161,0.362084167,9.737475,-18.08636583
162,0.362436111,9.726916667,-20.4765683
163,0.362779444,9.716616667,-20.93913609
164,0.363029722,9.709108333,-20.21114778
165,0.363278333,9.70165,-18.29468602
166,0.363524167,9.694275,-15.70793493
167,0.363773611,9.686791667,-16.13609399
168,0.364129167,9.676125,-16.7660641
169,0.364474444,9.665766667,-14.67925812
170,0.364721944,9.658341667,-14.07899279
171,0.364968611,9.650941667,-10.70054216
172,0.365216389,9.643508333,-8.025978584
173,0.365465556,9.636033333,-6.123155838
174,0.365817778,9.625466667,-4.668338375
175,0.366156944,9.615291667,-5.333564406
176,0.366405833,9.607825,-4.245219624
177,0.366653611,9.600391667,-3.872301534
178,0.366905833,9.598565,-5.298186306
179,0.367156389,9.597061667,-8.103969742
180,0.367508889,9.594946667,-10.29280844
181,0.367849167,9.592905,-11.07242686
182,0.368100278,9.591398333,-14.61887356
183,0.368353056,9.589881667,-15.09650416
184,0.368601667,9.58839,-13.89245832
185,0.368846944,9.586918333,-12.93038987
186,0.369190556,9.584856667,-12.50502579
187,0.369523056,9.582861667,-11.9918761
188,0.369772222,9.581366667,-14.14589145
189,0.370024444,9.579853333,-13.65398945
190,0.370276667,9.57834,-14.37388289
191,0.370529722,9.576821667,-13.68042705
192,0.370888056,9.574671667,-12.98327613
193,0.371230833,9.572615,-11.10345471
194,0.371481944,9.571108333,-12.12947447
195,0.371729444,9.569623333,-9.845171569
196,0.371976389,9.568141667,-9.936668716
197,0.372225833,9.566645,-8.144339026
198,0.372577222,9.564536667,-6.055375562
199,0.372915556,9.562506667,-5.871567455
200,0.373163333,9.56102,-4.84553159
201,0.373412778,9.559523333,-5.172838377
202,0.373663889,9.558016667,-3.837304092
203,0.373910556,9.556536667,-0.560604443
204,0.374259444,9.554443333,2.538908872
205,0.374600556,9.552396667,3.504112326
206,0.374851667,9.55089,4.015971763
207,0.375101389,9.549391667,1.123568229
208,0.375352778,9.547883333,3.594333118
209,0.375601111,9.546393333,5.498850996
210,0.375953889,9.544276667,7.822144828
211,0.376295833,9.542225,10.75664627
212,0.376543889,9.540736667,13.83268601
213,0.376791389,9.539251667,14.72629495
214,0.377040278,9.537758333,17.63066879
215,0.377288056,9.536271667,18.48424778
216,0.377633333,9.5342,18.91533546
217,0.377975,9.53215,18.62946068
218,0.378226389,9.530641667,18.30285513
219,0.378474722,9.529151667,18.49956384
220,0.378722222,9.527666667,17.56995742
221,0.3789725,9.526165,15.02234148
222,0.379328056,9.524031667,12.43530183
223,0.379667222,9.521996667,9.81065824
224,0.379917778,9.520493333,7.533957414
225,0.380168056,9.518991667,6.199547755
226,0.380418056,9.517491667,3.85859287
227,0.380668611,9.515988333,5.437283962
228,0.381018611,9.513888333,7.367420422
229,0.381358611,9.511848333,10.56903412
230,0.381606111,9.510363333,9.094131161
231,0.381858333,9.50885,6.754102476
232,0.382105,9.50737,5.737584204
233,0.382355556,9.505866667,2.208142008
234,0.382704444,9.503773333,-1.206099111
235,0.383048056,9.501711667,-2.508585704
236,0.383296389,9.500221667,-3.666269355
237,0.383545833,9.50765,-3.855338887
238,0.383799167,9.51677,-5.661048327
239,0.384050278,9.52581,-6.885164506
240,0.384406111,9.53862,-7.994434827
241,0.384751389,9.55105,-9.825585638
242,0.3850025,9.56009,-8.829209313
243,0.385251389,9.56905,-7.832859882
244,0.385501667,9.57806,-4.182059794
245,0.385753611,9.58713,-6.757903522
246,0.386104444,9.59976,-9.598855918
247,0.38644,9.61184,-11.0480394
248,0.386687778,9.62076,-8.675957186
249,0.386937222,9.62974,-10.99403497
250,0.387186389,9.63871,-9.179351442
251,0.387434722,9.64765,-11.03992819
252,0.387795,9.66062,-12.72033101
253,0.388138611,9.67299,-10.45193324
254,0.388387778,9.68196,-9.506130913
255,0.388635556,9.69088,-6.760319181
256,0.388883333,9.6998,-4.966137164
257,0.389135556,9.70888,-2.346353261
258,0.389488056,9.72157,0.67047253
259,0.389828333,9.73382,1.730378295
260,0.390075556,9.74272,4.555710359
261,0.390321389,9.75157,4.234044565
262,0.390566111,9.76038,3.759373329
263,0.390817778,9.76944,2.992970928
264,0.391171389,9.78217,1.634014019
265,0.391512222,9.79444,0.826762716
266,0.3917625,9.80345,-0.280256459
267,0.392012778,9.81246,0.806152151
268,0.392263056,9.82147,-2.353890487
269,0.392510833,9.83039,-2.598434632
270,0.392858889,9.84292,-2.469695299
271,0.393196389,9.85507,-3.620326327
272,0.393443611,9.86397,-4.388110951
273,0.393691667,9.8729,-2.723684405
274,0.393942778,9.88194,-5.436173722
275,0.394195556,9.89104,-8.365668612
276,0.394552222,9.90388,-11.21143479
277,0.394901389,9.91645,-11.90309632
278,0.395153333,9.92552,-11.55296724
279,0.395401944,9.93447,-12.64984229
280,0.395651389,9.94345,-16.23894725
281,0.3959,9.9524,-17.53961907
282,0.396246944,9.96489,-18.57419729
283,0.396585278,9.97707,-20.40634849
284,0.396833611,9.98601,-20.4257872
285,0.397083056,9.99499,-20.10005342
286,0.397331667,10.00394,-20.45751567
287,0.397585833,10.01309,-21.8766909
288,0.397943889,10.02598,-23.18624268
289,0.398288611,10.03839,-21.34707073
290,0.398541667,10.0475,-20.6247179
291,0.398790833,10.05647,-19.45157308
292,0.399043889,10.06558,-17.75035915
293,0.399296389,10.07467,-16.80780609
294,0.399645556,10.08724,-16.12130584
295,0.399984167,10.09943,-17.75645685
296,0.400230833,10.095845,-19.2215053
297,0.400477778,10.0914,-20.03237913
298,0.400726389,10.086925,-21.43136864
299,0.4009775,10.082405,-22.79998906
300,0.4013275,10.076105,-23.75672556
301,0.401669444,10.06995,-22.98944108
302,0.401915278,10.065525,-23.57371684
303,0.402163889,10.06105,-21.68951797
304,0.402415,10.05653,-19.69202314
305,0.402665278,10.052025,-17.52024969
306,0.403019722,10.045645,-15.52649868
307,0.403360278,10.039515,-14.3949465
308,0.403611667,10.03499,-14.85807958
309,0.403862222,10.03048,-14.11075996
310,0.404111667,10.02599,-14.55204375
311,0.404360278,10.021515,-16.55690993
312,0.404708611,10.015245,-18.63441673
313,0.405048333,10.00913,-16.78296551
314,0.4052975,10.004645,-19.54073373
315,0.405550833,10.000085,-18.02223003
316,0.405801944,9.995565,-18.16254423
317,0.406049444,9.99111,-18.33864605
318,0.406404444,9.98472,-18.24676792
319,0.406744167,9.978605,-16.04037564
320,0.406989167,9.974195,-13.8058601
321,0.407236944,9.969735,-12.05118755
322,0.407490556,9.96517,-13.10793885
323,0.407740278,9.960675,-12.16168836
324,0.408085556,9.95446,-11.4485381
325,0.408420833,9.948425,-12.98632979
326,0.408670278,9.943935,-13.44630909
327,0.408921944,9.939405,-16.09319396
328,0.409173056,9.934885,-12.18919978
329,0.409425,9.93035,-11.63875157
330,0.409776944,9.924015,-10.68534207
331,0.410118889,9.91786,-6.295812257
332,0.410369167,9.913355,-2.540292981
333,0.410617222,9.90889,-0.44833617
334,0.410865,9.90443,0.581265798
335,0.411114722,9.899935,0.754591663
336,0.411464722,9.893635,0.611039749
337,0.411807222,9.88747,0.229473647
338,0.412059167,9.882935,-0.593874825
339,0.412309167,9.878435,0.551854961
340,0.412559167,9.873935,0.340317709
341,0.412811667,9.86939,-2.393976285
342,0.413166667,9.863,-5.215654236
343,0.413505833,9.856895,-5.922194488
344,0.413760833,9.852305,-6.657925142
345,0.4140175,9.847685,-5.072312148
346,0.414269722,9.843145,-4.89237392
347,0.414519444,9.83865,-2.007843683
348,0.41487,9.83234,1.391729104
349,0.415208889,9.82624,5.938309712
350,0.415456944,9.821775,5.08607817
351,0.415708889,9.81724,4.585173754
352,0.415961111,9.8127,2.989409761
353,0.416215,9.80813,1.268931669
354,0.416571667,9.80171,-0.293573591
355,0.416915278,9.801491667,-0.986757199
356,0.417163889,9.802983333,-0.027029043
357,0.417415833,9.804495,-1.576066085
358,0.417665278,9.805991667,-4.264574497
359,0.417915556,9.807493333,-6.664345187
360,0.418266389,9.809598333,-9.051313799
361,0.418605278,9.811631667,-8.909060892
362,0.418851389,9.813108333,-10.96777789
363,0.419096111,9.814576667,-9.509699199
364,0.419344444,9.816066667,-7.597818632
365,0.419593056,9.817558333,-5.562014254
366,0.419945833,9.819675,-3.88352119
367,0.420289444,9.821736667,-4.38435899
368,0.420537222,9.823223333,-4.927146142
369,0.420785,9.82471,-7.597047816
370,0.421036944,9.826221667,-7.10198082
371,0.421286389,9.827718333,-7.387968079
372,0.4216375,9.829825,-7.314586235
373,0.421974722,9.831848333,-6.348352922
374,0.422225,9.83335,-3.263505554
375,0.422475278,9.834851667,-1.477782209
376,0.422723611,9.836341667,1.590192165
377,0.422973333,9.83784,3.255960802
378,0.423326667,9.83996,4.96984673
379,0.4236675,9.842005,7.413619066
380,0.423918889,9.843513333,10.46187734
381,0.424171944,9.845031667,12.03645028
382,0.424421389,9.846528333,14.14164329
383,0.424671944,9.848031667,14.07582125
384,0.425017222,9.850103333,13.74185379
385,0.425355556,9.852133333,12.41150009
386,0.425609444,9.853656667,13.33633989
387,0.425866111,9.855196667,13.25169431
388,0.4261175,9.856705,12.70124529
389,0.426365833,9.858195,11.09599134
390,0.426713056,9.860278333,9.702665119
391,0.427053889,9.862323333,9.791647821
392,0.4273025,9.863815,8.667985035
393,0.42755,9.8653,11.08912036
394,0.427799444,9.866796667,10.11070636
395,0.428049167,9.868295,9.86889088
396,0.428398889,9.870393333,9.719735627
397,0.428738056,9.872428333,11.30360396
398,0.428984722,9.873908333,12.16750149
399,0.429231667,9.87539,11.51544681
400,0.42948,9.87688,11.10833024
401,0.429729444,9.878376667,12.04965826
402,0.430074167,9.880445,12.99625205
403,0.430413889,9.882483333,12.03201147
404,0.430661111,9.883966667,12.17048522
405,0.430907222,9.885443333,11.4325277
406,0.431153056,9.886918333,10.46799294
407,0.431406111,9.888436667,10.97924366
408,0.431752222,9.890513333,11.7204942
409,0.432088611,9.892531667,11.19325672
410,0.432336389,9.894018333,11.63847558
411,0.432591389,9.895548333,10.98088246
412,0.432842222,9.897053333,11.41602159
413,0.433089444,9.898536667,11.7030175
414,0.433435556,9.900613333,12.10383522
415,0.433776111,9.902656667,10.17753236
416,0.434023889,9.904143333,8.44022394
417,0.434268056,9.905608333,8.090024294
418,0.4345175,9.907105,10.19586852
419,0.434768056,9.908608333,10.71514609
420,0.435120556,9.910723333,11.01016119
421,0.435462222,9.912773333,9.645651354
422,0.435710833,9.914265,10.87684092
423,0.435958611,9.915751667,11.14159729
424,0.436208611,9.917251667,10.11550901
425,0.436459722,9.918758333,10.40510732
426,0.436807222,9.920843333,10.86035019
427,0.437146944,9.922881667,10.27502707
428,0.437395,9.92437,8.157796557
429,0.437642222,9.925853333,9.382109476
430,0.437890833,9.927345,10.70192272
431,0.438139444,9.928836667,8.676418717
432,0.438493889,9.930963333,6.75800811
433,0.438836667,9.93302,5.15558041
434,0.439085278,9.934511667,2.339965865
435,0.439333611,9.936001667,3.359207907
436,0.439589444,9.937536667,3.262809093
437,0.439842778,9.939056667,5.008992332
438,0.440184444,9.941106667,6.761522912
439,0.440520556,9.943123333,7.81242574
440,0.440772778,9.944636667,8.905357475
441,0.441019722,9.946118333,10.38383234
442,0.4412675,9.947605,7.68789151
443,0.441522778,9.949136667,6.090887086
444,0.441873056,9.951238333,4.310260027
445,0.442213889,9.953283333,3.210574851
446,0.442466111,9.954796667,2.380780116
447,0.442716667,9.9563,3.770163091
448,0.442967778,9.957806667,4.978993582
449,0.443218056,9.959308333,2.80220101
450,0.4435725,9.961435,0.782205992
451,0.443915833,9.963495,3.129449509
452,0.444166389,9.964998333,3.694814688
453,0.444418889,9.966513333,4.111858358
454,0.444671944,9.968031667,4.858313458
455,0.444920278,9.969521667,4.392560118
456,0.445268611,9.971611667,3.98266858
457,0.445606389,9.973638333,2.621458733
458,0.445854167,9.975125,-0.555180459
459,0.446101944,9.976611667,0.07780705
460,0.446348611,9.978091667,1.350243288
461,0.446597222,9.979583333,-0.76431847
462,0.446948056,9.981688333,-3.185837923
463,0.447286111,9.983716667,-6.071624975
464,0.447533611,9.985201667,-6.005153474
465,0.447785556,9.986713333,-7.77627521
466,0.448035278,9.988211667,-6.987585308
467,0.4482875,9.989725,-6.035478777
468,0.448632222,9.991793333,-4.877825406
469,0.448968333,9.99381,-3.909668075
470,0.449221389,9.995328333,-6.316279727
471,0.449467222,9.996803333,-8.814475567
472,0.449715,9.99829,-9.789828234
473,0.449969722,9.999818333,-8.792522205
474,0.450320556,10.00192333,-7.617645278
475,0.450658889,10.00395333,-4.367368378
476,0.45091,10.00546,-2.671675644
477,0.4511575,10.006945,-1.976451306
478,0.4514025,10.008415,-2.991458651
479,0.451654722,10.00992833,-5.865527225
480,0.452009167,10.012055,-8.821537936
481,0.452351111,10.01410667,-6.782408392
482,0.452602222,10.01561333,-6.729499302
483,0.452853611,10.01712167,-4.617122331
484,0.453103056,10.01861833,-3.866321114
485,0.453356111,10.02013667,-0.419812807
486,0.453710556,10.02226333,2.640331145
487,0.454049444,10.02429667,1.405104277
488,0.454296111,10.02577667,-1.168926655
489,0.454543056,10.02725833,-4.44247976
490,0.454789722,10.02873833,-5.657535471
491,0.4550375,10.030225,-6.509267714
492,0.455388333,10.03233,-7.154044963
493,0.45573,10.03438,-8.161139571
494,0.455975,10.03585,-7.402562079
495,0.456226389,10.03735833,-6.72950397
496,0.456476667,10.03886,-5.531289248
497,0.456726667,10.04036,-5.321882706
498,0.457075556,10.04245333,-5.063555231
499,0.457418611,10.04451167,-4.347973226
500,0.457666111,10.04599667,-3.945113655
501,0.4579175,10.047505,-4.861644359
502,0.458166944,10.04900167,-4.446869704
503,0.458420278,10.05052167,-4.702456619
504,0.458772778,10.05263667,-4.6040196
505,0.4591125,10.054675,-8.085938261
506,0.459361389,10.05616833,-9.747473412
507,0.459613333,10.05768,-11.25545711
508,0.459864444,10.05918667,-10.01582064
509,0.460111944,10.06067167,-10.35513257
510,0.460468889,10.06281333,-10.82314236
511,0.460820278,10.06492167,-8.828026528
512,0.461068056,10.06640833,-8.174419733
513,0.461315833,10.067895,-6.088842967
514,0.461566111,10.06939667,-5.456684468
515,0.461816667,10.0709,-2.405853195
516,0.462166389,10.07299833,0.43853523
517,0.462504444,10.07502667,1.66645086
518,0.462752222,10.07651333,2.672037535
519,0.4630025,10.078015,5.632786193
520,0.463253611,10.07952167,8.094327529
521,0.463506667,10.08104,9.018958716
522,0.463858611,10.08315167,10.20194018
