,Time,Temperature,Vmax
1,0.333812222,9.70862,18.92073527
2,0.334175833,9.715165,19.20600214
3,0.334423611,9.719625,20.31907442
4,0.334670278,9.724065,24.0774079
5,0.334920556,9.72857,24.61410904
6,0.335173611,9.733125,23.65270043
7,0.335561111,9.7401,22.42182032
8,0.335922778,9.74661,21.73146011
9,0.336173333,9.75112,24.52558004
10,0.336428056,9.755705,22.09989602
11,0.336681111,9.76026,21.31096297
12,0.336932778,9.76479,19.01067527
13,0.337314444,9.77166,16.77807865
14,0.33768,9.77824,14.52684104
15,0.337927778,9.7827,12.26816245
16,0.338176111,9.78717,10.82121583
17,0.338422778,9.79161,7.675690067
18,0.338674444,9.79614,6.926265858
19,0.33906,9.80308,7.099744394
20,0.339429722,9.809735,6.722650645
21,0.339681944,9.814275,4.375091854
22,0.3399325,9.818785,2.767545637
23,0.340182778,9.82329,0.89652391
24,0.340433333,9.8278,2.327319518
25,0.340820556,9.83477,3.123827936
26,0.341186944,9.841365,0.695455311
27,0.341439167,9.845905,1.770418791
28,0.341691111,9.85044,4.686989
29,0.341938889,9.8549,7.291071891
30,0.342188611,9.859395,4.561331286
31,0.34256,9.86608,2.361092973
32,0.342915556,9.87248,3.762430723
33,0.343166111,9.87699,5.78345284
34,0.343419167,9.881545,5.743795464
35,0.343666944,9.886005,4.759069805
36,0.343916111,9.89049,5.259906788
37,0.344291111,9.89724,5.697229169
38,0.344648056,9.903665,4.339778894
39,0.344896111,9.90813,2.955482639
40,0.345147222,9.91265,1.486517088
41,0.345395,9.91711,-0.256065355
42,0.345646111,9.92163,0.121961983
43,0.346030556,9.92855,0.844117059
44,0.346393333,9.93508,1.776378009
45,0.346641111,9.93954,2.457627369
46,0.346888611,9.943995,3.702383863
47,0.347137222,9.94847,4.910780559
48,0.347389444,9.95301,5.735113737
49,0.347774167,9.959935,6.672855141
50,0.348133889,9.96641,6.218444707
51,0.348382778,9.97089,6.978617732
52,0.348634722,9.975425,6.818578891
53,0.348885833,9.979945,8.827906235
54,0.3491375,9.984475,8.57246222
55,0.349515833,9.991285,8.120610666
56,0.349880556,9.99785,8.164764331
57,0.350129444,10.00388333,9.831889697
58,0.350378333,10.01135,9.275154005
59,0.350630278,10.01890833,10.94792308
60,0.350885556,10.02656667,10.72336222
61,0.351277222,10.03831667,10.61854077
62,0.351643056,10.04929167,9.449250186
63,0.351890278,10.05670833,9.568621202
64,0.352140833,10.064225,9.689166702
65,0.352391389,10.07174167,9.201985917
66,0.352643611,10.07930833,9.634635696
67,0.353019167,10.090575,10.75314473
68,0.353380833,10.101425,12.92846432
69,0.353632778,10.10898333,14.91393212
70,0.353883611,10.11650833,14.38752308
71,0.354134722,10.12404167,15.54924355
72,0.354383056,10.13149167,15.94751608
73,0.354765,10.14295,16.05050623
74,0.355130556,10.15391667,11.99093826
75,0.355379444,10.16138333,12.29123629
76,0.355626667,10.1688,9.00797965
77,0.355877778,10.17633333,0.481299433
78,0.35613,10.1839,0.17560334
79,0.356510278,10.19530833,1.458719014
80,0.356869444,10.20608333,6.426508344
81,0.357121667,10.21365,6.211929223
82,0.357371111,10.22113333,7.987401964
83,0.357617778,10.22853333,6.432612827
84,0.357868056,10.23604167,7.682482242
85,0.358251111,10.24753333,8.981683478
86,0.358615,10.25845,12.07422986
87,0.358860833,10.265825,11.68688031
88,0.359114444,10.27343333,10.35292743
89,0.359363889,10.28091667,11.91838832
90,0.359614444,10.28843333,13.82249241
91,0.359999167,10.299975,15.1770315
92,0.360361667,10.31085,16.76660032
93,0.360609722,10.31829167,18.08571109
94,0.360859167,10.325775,19.51727062
95,0.3611075,10.333225,20.99734958
96,0.361356111,10.34068333,21.71212279
97,0.361726111,10.35178333,21.8947279
98,0.362079722,10.36239167,23.40792129
99,0.362327222,10.36981667,22.55039738
100,0.362577778,10.37733333,19.6298154
101,0.362828889,10.38486667,16.6415209
102,0.363078333,10.39235,18.52853858
103,0.3634575,10.403725,21.19805935
104,0.363816667,10.4145,21.96218641
105,0.364063333,10.4219,24.57446372
106,0.364313611,10.42940833,25.58792922
107,0.364559444,10.43678333,24.5854911
108,0.364807222,10.44421667,25.76790881
109,0.365178333,10.45535,27.09553504
110,0.365532778,10.46598333,29.98621012
111,0.365780278,10.47340833,29.3351412
112,0.366028889,10.48086667,32.31778443
113,0.3662775,10.488325,31.27755238
114,0.366524722,10.49574167,30.07716866
115,0.366894167,10.498635,28.83984128
116,0.3672525,10.496485,25.80321281
117,0.3675,10.495,25.21207764
118,0.3677475,10.493515,24.5039221
119,0.367996389,10.49202167,24.92421709
120,0.368245833,10.490525,25.09280256
121,0.368621389,10.48827167,26.53234942
122,0.368978611,10.48612833,28.47819825
123,0.369227778,10.48463333,30.09842353
124,0.369476111,10.48314333,32.20002617
125,0.369724167,10.481655,32.96657784
126,0.369977778,10.48013333,34.54304714
127,0.370351944,10.47788833,34.94990452
128,0.370710833,10.475735,31.93644117
129,0.370959444,10.47424333,33.89371657
130,0.371206111,10.47276333,34.19463246
131,0.371452778,10.47128333,36.23134744
132,0.371701389,10.46979167,34.31069131
133,0.372078056,10.46753167,32.80971249
134,0.372440556,10.46535667,31.36354854
135,0.372687222,10.46387667,28.9710422
136,0.372935,10.46239,27.90386502
137,0.373186944,10.46087833,26.4976082
138,0.373438333,10.45937,25.84093362
139,0.373822778,10.45706333,26.20153475
140,0.374185556,10.45488667,28.07694715
141,0.374434444,10.45339333,28.07246697
142,0.374682778,10.45190333,27.38238047
143,0.3749325,10.450405,27.88308973
144,0.375180833,10.448915,27.3247659
145,0.375562222,10.44662667,26.07638853
146,0.375925556,10.44444667,24.56988149
147,0.376174167,10.442955,24.62887632
148,0.376421111,10.44147333,27.50631885
149,0.376670278,10.43997833,27.89239149
150,0.3769225,10.438465,26.20483107
151,0.3773025,10.436185,24.82530785
152,0.3776625,10.434025,25.00358372
153,0.377915,10.43251,23.05465989
154,0.378168056,10.43099167,19.60521735
155,0.378419167,10.429485,18.99330175
156,0.378664722,10.42801167,17.20464037
157,0.379040556,10.42575667,16.0690337
158,0.379401389,10.42359167,11.693904
159,0.379649167,10.422105,7.836445566
160,0.379899444,10.42060333,5.389441654
161,0.380145556,10.41912667,4.636871562
162,0.380395556,10.41762667,5.081380534
163,0.380781111,10.41531333,5.032091612
164,0.381150278,10.41309833,3.658513578
165,0.381401389,10.41159167,1.69554231
166,0.381653056,10.41008167,1.179393765
167,0.381906944,10.40855833,1.601405413
168,0.382157222,10.40705667,4.571726215
169,0.382542778,10.40474333,7.880242628
170,0.382906667,10.40256,6.575469197
171,0.383155,10.40107,3.647702839
172,0.383405556,10.3987,4.136166222
173,0.383655,10.39421,7.342983237
174,0.383905,10.38971,8.224903026
175,0.384285556,10.38286,9.575630015
176,0.384653056,10.376245,11.82125904
177,0.384907778,10.37166,11.54536735
178,0.385159167,10.367135,10.18003377
179,0.385407778,10.36266,11.39059823
180,0.385656111,10.35819,12.07496576
181,0.386038611,10.351305,12.22560139
182,0.386406111,10.34469,11.86923957
183,0.386654722,10.340215,12.34504666
184,0.386901389,10.335775,14.50518747
185,0.38715,10.3313,14.10692356
186,0.387399444,10.32681,13.50037528
187,0.387786944,10.319835,12.77598271
188,0.388150556,10.31329,15.44089322
189,0.388396389,10.308865,14.21842378
190,0.388648611,10.304325,11.7956333
191,0.388900833,10.299785,14.77652792
192,0.389151944,10.295265,11.91531645
193,0.389535833,10.288355,9.715554819
194,0.3899025,10.281755,8.021471224
195,0.390150833,10.277285,9.448923921
196,0.390398333,10.27283,6.481479576
197,0.390645,10.26839,0.63383445
198,0.390892778,10.26393,1.826502211
199,0.391278056,10.256995,4.001557294
200,0.391639167,10.250495,5.645890838
201,0.391888611,10.246005,3.399665253
202,0.392141667,10.24145,2.935511451
203,0.392397778,10.23684,1.965570609
204,0.392650833,10.232285,1.640247715
205,0.393030833,10.225445,1.009333773
206,0.393393889,10.21891,1.484223978
207,0.393643333,10.21442,0.574165511
208,0.393891667,10.20995,-0.643064732
209,0.394140278,10.205475,-0.396885324
210,0.394391389,10.200955,-0.28343926
211,0.3947725,10.194095,0.328977417
212,0.395135,10.18757,-0.556649641
213,0.39538,10.18316,1.932531501
214,0.395626667,10.17872,-0.77329077
215,0.395874444,10.17426,-1.815243073
216,0.396123056,10.169785,-2.280066058
217,0.3965125,10.162775,-2.945326395
218,0.396882222,10.15612,-3.573639837
219,0.397133611,10.151595,-5.034545706
220,0.397383056,10.147105,-6.28927223
221,0.397633333,10.1426,-4.792739599
222,0.3978875,10.138025,-3.989624448
223,0.398273611,10.131075,-2.922092339
224,0.398639722,10.124485,-5.557993145
225,0.398890556,10.11997,-3.007992152
226,0.399140278,10.115475,0.407126267
227,0.399386944,10.111035,1.620785948
228,0.399634167,10.106585,3.642271942
229,0.400009167,10.099945,5.219338562
230,0.400371944,10.09776833,8.218842566
231,0.400625,10.09625,7.056374363
232,0.400876944,10.09473833,7.643076367
233,0.401127222,10.09323667,7.516224435
234,0.401373333,10.09176,6.04076517
235,0.401749722,10.08950167,4.288416506
236,0.402109722,10.08734167,3.777579156
237,0.402359167,10.085845,3.316026333
238,0.402608611,10.08434833,3.704531421
239,0.402855556,10.08286667,1.830830687
240,0.403105,10.08137,0.428744364
241,0.403485,10.07909,-0.069708502
242,0.403847778,10.07691333,1.690759444
243,0.404093611,10.07543833,2.770475009
244,0.404346389,10.07392167,2.909111309
245,0.404598056,10.07241167,4.921319631
246,0.4048475,10.070915,6.395029194
247,0.405233889,10.06859667,7.233901918
248,0.405605833,10.066365,7.003943211
249,0.405855,10.06487,8.727320183
250,0.406102778,10.06338333,10.94999104
251,0.406352222,10.06188667,16.16169043
252,0.4066025,10.060385,17.60411916
253,0.406985556,10.05808667,19.6174808
254,0.407346389,10.05592167,20.36598105
255,0.407595833,10.054425,21.08390951
256,0.407846389,10.05292167,24.8238057
257,0.408098611,10.05140833,27.3861363
258,0.408350833,10.049895,29.79289512
259,0.408731389,10.04761167,32.5174601
260,0.4090925,10.045445,34.06793188
261,0.409342778,10.04394333,37.31598583
262,0.409593333,10.04244,37.968695
263,0.4098475,10.040915,39.6774427
264,0.410095,10.03943,39.68426961
265,0.410468889,10.03718667,38.65038547
266,0.410823889,10.03505667,38.96391689
267,0.411071944,10.03356833,38.5233542
268,0.411320278,10.03207833,37.89019507
269,0.411570556,10.03057667,37.16102954
270,0.411821667,10.02907,37.31435213
271,0.412198611,10.02680833,37.93873525
272,0.4125575,10.024655,38.63332332
273,0.412807778,10.02315333,35.87524327
274,0.413057222,10.02165667,30.96788687
275,0.413307778,10.02015333,30.36019972
276,0.413556944,10.01865833,28.99611752
277,0.41394,10.01636,28.49951849
278,0.414304722,10.01417167,27.43925463
279,0.414557778,10.01265333,27.05748308
280,0.414808056,10.01115167,24.98729617
281,0.415055833,10.009665,24.04362607
282,0.415303333,10.00818,25.81781491
283,0.415676944,10.00593833,26.63846148
284,0.416038056,10.00377167,23.65825365
285,0.416288333,10.00227,22.81562995
286,0.416535278,10.00078833,22.7159538
287,0.416782778,10.00209,23.25006069
288,0.417032778,10.00659,25.63127796
289,0.417408611,10.013355,28.82539283
290,0.417769444,10.01985,28.96934256
291,0.418016389,10.024295,26.64785941
292,0.418265833,10.028785,27.45237486
293,0.418518056,10.033325,27.9120751
294,0.418766667,10.0378,29.67282108
295,0.419156389,10.044815,31.31707491
296,0.4195275,10.051495,33.57543176
297,0.419779722,10.056035,31.52044648
298,0.420032222,10.06058,26.60600817
299,0.420286111,10.06515,24.15019839
300,0.420536389,10.069655,23.92572126
301,0.4209125,10.076425,23.28047263
302,0.42127,10.08286,23.64569596
303,0.421516667,10.0873,22.94110261
304,0.421765278,10.091775,25.20024827
305,0.422013056,10.096235,26.28775845
306,0.422266667,10.1008,25.39045922
307,0.422651667,10.10773,24.10294226
308,0.423014722,10.114265,26.19734306
309,0.423261944,10.118715,25.65061852
310,0.423511389,10.123205,23.90039152
311,0.423761944,10.127715,23.70146002
312,0.424015,10.13227,18.2175419
313,0.424396944,10.139145,13.55581852
314,0.424760556,10.14569,11.02760673
315,0.425006667,10.15012,11.02168054
316,0.425257778,10.15464,10.60314143
317,0.425510556,10.15919,10.06090393
318,0.425762222,10.16372,11.5034291
319,0.426143056,10.170575,13.6121115
320,0.426503889,10.17707,13.96996167
321,0.426755278,10.181595,14.51196537
322,0.427005556,10.1861,15.03605662
323,0.427259722,10.190675,16.08423184
324,0.427505556,10.1951,15.556056
325,0.427885556,10.20194,13.75980209
326,0.428252778,10.20855,14.06446053
327,0.428503333,10.21306,14.75838378
328,0.428751667,10.21753,14.42337035
329,0.429001389,10.222025,13.25483664
330,0.429251389,10.226525,13.20754427
331,0.429628889,10.23332,14.58693749
332,0.429988333,10.23979,12.14943723
333,0.430236667,10.24426,16.72858944
334,0.430483611,10.248705,15.57978421
335,0.430733611,10.253205,16.00871999
336,0.430983889,10.25771,15.60406274
337,0.431363889,10.26455,14.94141352
338,0.431726944,10.271085,14.48143805
339,0.431978889,10.27562,13.64013177
340,0.432226111,10.28007,14.55861669
341,0.432474444,10.28454,16.61946421
342,0.432724444,10.28904,15.66776896
343,0.433105,10.29589,15.00413111
344,0.433467778,10.30161333,12.61026538
345,0.433718611,10.30462333,12.69782672
346,0.433966667,10.3076,13.75343038
347,0.434216944,10.31060333,13.71283358
348,0.434466111,10.31359333,13.83334104
349,0.434843056,10.31811667,13.41564235
350,0.435203056,10.32243667,13.29948174
351,0.435451667,10.32542,11.51019299
352,0.435701667,10.32842,11.11058794
353,0.435951944,10.33142333,10.66570541
354,0.4362025,10.33443,8.681791894
355,0.436578056,10.33893667,5.711286894
356,0.436936111,10.34323333,8.277126103
357,0.437185,10.34622,7.625885201
358,0.437433889,10.34920667,7.465748252
359,0.437681667,10.35218,6.83098191
360,0.437931389,10.35517667,3.565060887
361,0.438319722,10.35983667,-0.02788794
362,0.438686111,10.36423333,-0.299762492
363,0.438932778,10.36719333,-2.1827873
364,0.439183056,10.37019667,-5.210970598
365,0.439433611,10.37320333,-6.733347875
366,0.439681389,10.37617667,-10.08848969
367,0.440065556,10.38078667,-11.76811066
368,0.4404275,10.38513,-9.472807417
369,0.440673611,10.38808333,-6.52795378
370,0.440923611,10.39108333,-7.306210336
371,0.441173889,10.39408667,-7.156652845
372,0.441423333,10.39708,-7.295347135
373,0.4418,10.4016,-7.658384181
374,0.442159167,10.40591,-8.638126979
375,0.4424075,10.40889,-4.976120232
376,0.442657222,10.41188667,-0.387015778
377,0.442906667,10.41488,0.295617659
378,0.443160556,10.41792667,3.144621776
379,0.443541389,10.42249667,6.180908935
380,0.443900833,10.42681,5.167872683
381,0.444150278,10.42980333,8.609467972
382,0.444401389,10.43281667,7.873543331
383,0.444649167,10.43579,8.374915461
384,0.444899444,10.43879333,10.39396043
385,0.4452825,10.44339,11.82744029
386,0.445646944,10.44776333,13.57054738
387,0.445892778,10.45071333,13.16384077
388,0.446139722,10.45367667,11.40605552
389,0.446388611,10.45666333,12.83227109
390,0.446638333,10.45966,14.75522583
391,0.447015556,10.46418667,17.14778309
392,0.447373056,10.46847667,18.04793859
393,0.447619722,10.47143667,20.85711818
394,0.447866389,10.47439667,19.63074584
395,0.448115833,10.47739,17.53682493
396,0.448368056,10.48041667,13.41159574
397,0.448745556,10.48494667,9.818824889
398,0.449105556,10.48926667,9.669027934
399,0.449356944,10.49228333,8.994683362
400,0.449605278,10.49526333,8.53106527
401,0.449854722,10.49825667,6.520547042
402,0.450103889,10.5,7.139674368
403,0.450483611,10.5,7.129559798
404,0.450848056,10.5,6.184956368
405,0.451097222,10.5,8.470771517
406,0.451345,10.5,9.501641493
407,0.451594167,10.5,9.210824954
408,0.451844722,10.5,9.52752072
409,0.452228333,10.5,10.29383983
410,0.452595833,10.5,12.04477865
411,0.452844167,10.5,12.46879866
412,0.453092778,10.5,13.09578054
413,0.453346111,10.5,13.74334431
414,0.453599167,10.5,14.10549248
415,0.453986944,10.5,14.06360023
416,0.454353056,10.5,16.10972969
417,0.454598889,10.5,16.10239559
418,0.454847222,10.5,12.69611003
419,0.455097778,10.5,12.72098223
420,0.455350556,10.5,11.86658438
421,0.455730278,10.5,10.3075047
422,0.456098056,10.5,9.712827531
423,0.456347778,10.5,8.271992306
424,0.456594444,10.5,7.923909978
425,0.456840278,10.5,8.639447266
426,0.45709,10.5,8.633607699
427,0.457473611,10.5,9.880370715
428,0.457836111,10.5,13.13708584
429,0.458084167,10.5,15.31696364
430,0.458332222,10.5,16.7422627
431,0.458580833,10.5,14.60515891
432,0.458828333,10.5,9.70506465
433,0.459210278,10.5,4.175825937
434,0.459571389,10.5,1.873538303
435,0.45982,10.5,1.27371944
436,0.460071111,10.5,-0.758662089
437,0.460322778,10.5,0.670902165
438,0.460574722,10.5,2.314325551
439,0.460955,10.5,4.689512539
440,0.461316389,10.5,5.298021431
441,0.461565278,10.5,4.408019654
442,0.461814444,10.5,3.036931119
443,0.462063333,10.5,3.360419844
444,0.462315278,10.5,2.365491761
445,0.462700833,10.5,0.334343048
446,0.463068333,10.5,0.189395025
447,0.463315833,10.5,-0.249334169
448,0.463564444,10.5,-2.214734974
449,0.463812222,10.5,-3.91861566
450,0.464061667,10.5,-3.97039631
451,0.464441667,10.5,-3.200001665
452,0.464806389,10.5,-5.943203254
453,0.465053056,10.5,-4.421017476
454,0.465301667,10.5,-3.021600657
455,0.465550278,10.5,0.037776817
456,0.465802222,10.5,0.35777547
457,0.466175833,10.5,1.667271454
458,0.466533333,10.5,2.290878879
459,0.466786389,10.50287333,4.576507615
460,0.467035,10.50884,7.647203139
461,0.467282778,10.51478667,9.482992161
462,0.467531667,10.52076,10.88399971
463,0.4679075,10.52978,11.58772685
464,0.468263611,10.53832667,12.46311551
465,0.468509444,10.54422667,13.49093394
466,0.468755278,10.55012667,15.8608557
467,0.469002778,10.55606667,14.91639417
468,0.469251389,10.56203333,15.39492956
469,0.469624444,10.57098667,15.82228819
470,0.4699825,10.57958,17.33661204
471,0.470227778,10.58546667,18.59706944
472,0.470478611,10.59148667,19.43163826
473,0.47073,10.59752,18.92311495
474,0.470975833,10.60342,19.15181552
475,0.471348056,10.61235333,18.81026838
476,0.471706667,10.62096,19.1553454
477,0.471956389,10.62695333,20.13434843
478,0.472203056,10.63287333,18.63124236
479,0.472453333,10.63888,20.95493283
480,0.472703611,10.64488667,19.73756837
481,0.473084722,10.65403333,18.76157481
482,0.473446667,10.66272,21.8021068
483,0.473696111,10.66870667,20.06937569
484,0.473945556,10.67469333,17.31051129
485,0.474194167,10.68066,14.9721398
486,0.474441389,10.68659333,14.67285041
487,0.474823333,10.69576,14.62832299
488,0.475186667,10.70448,14.88537127
489,0.475434167,10.71042,15.88901908
490,0.475684167,10.71642,14.85310797
491,0.475931389,10.72235333,12.16610664
492,0.476181389,10.72835333,8.79433992
493,0.476564444,10.73754667,5.084821044
494,0.476931667,10.74636,3.901499788
495,0.477181111,10.75234667,3.496453008
496,0.477428889,10.75829333,3.361791738
497,0.477678333,10.76428,2.745841323
498,0.477928333,10.77028,2.8667514
499,0.478309444,10.77942667,3.300571568
500,0.478673333,10.78816,0.415284663
501,0.478923333,10.79416,2.372343183
502,0.479173333,10.80016,3.285481479
503,0.479425278,10.80620667,3.26758041
504,0.479676389,10.81223333,4.052072778
505,0.480061944,10.82148667,4.437208937
506,0.4804275,10.83026,5.101828436
507,0.480678889,10.83629333,7.227195217
508,0.480928611,10.84228667,7.702871411
509,0.481183056,10.84839333,11.10338565
510,0.481432778,10.85438667,15.27487906
511,0.481816389,10.86359333,20.13336056
512,0.482180278,10.87232667,20.25719025
513,0.482425833,10.87822,25.01791529
514,0.482675556,10.88421333,27.14593951
515,0.482926667,10.89024,26.88833112
516,0.483175278,10.89620667,24.85889896
517,0.483563611,10.895855,23.41888821
518,0.483930833,10.889245,22.21170278
519,0.484185,10.88467,21.75878133
520,0.484438333,10.88011,25.33979691
521,0.484689167,10.875595,24.74446803
522,0.484939722,10.871085,24.12778537
523,0.485325278,10.864145,22.24438035
524,0.485688889,10.8576,23.16936105
