,Time,Temperature,Vmax
1,0.267050833,9.5,129.1993189
2,0.267300278,9.5,125.3667371
3,0.2676775,9.5,122.2160846
4,0.2680375,9.5,118.1672226
5,0.268287778,9.5,126.451303
6,0.268535556,9.5,132.2676301
7,0.268783056,9.5,132.8329048
8,0.269031389,9.5,129.1331875
9,0.269411667,9.5,124.4758805
10,0.269780833,9.5,126.2820272
11,0.270030278,9.5,123.6297137
12,0.270280556,9.5,125.0505736
13,0.270526667,9.5,128.1983126
14,0.270776667,9.5,126.6252796
15,0.271152222,9.5,125.648573
16,0.2715125,9.5,126.7494783
17,0.271765833,9.5,123.1232353
18,0.272017778,9.5,125.5595607
19,0.272271667,9.5,129.0771158
20,0.272522778,9.5,131.2633802
21,0.272906944,9.5,133.4796583
22,0.273273333,9.5,137.6724898
23,0.27352,9.5,133.7088161
24,0.273768611,9.5,136.2075274
25,0.274019722,9.5,133.6239328
26,0.274268333,9.5,127.0437102
27,0.274650278,9.5,120.943522
28,0.275013056,9.5,121.0501617
29,0.275260556,9.5,124.4038546
30,0.275514722,9.5,130.1250828
31,0.275765,9.5,132.9622307
32,0.276013611,9.5,131.5443583
33,0.27639,9.5,129.2296588
34,0.276748333,9.5,125.530354
35,0.276994722,9.5,122.8179043
36,0.277248889,9.5,121.1541329
37,0.277500833,9.5,119.6550601
38,0.277750556,9.5,113.8376088
39,0.278135278,9.5,108.31322
40,0.278501389,9.5,105.9738733
41,0.278747778,9.5,103.9668349
42,0.278996111,9.5,96.8435398
43,0.279244444,9.5,101.9912529
44,0.279498611,9.5,97.53703975
45,0.279879444,9.5,92.82365005
46,0.280243889,9.5,90.60657342
47,0.280498889,9.5,91.15623603
48,0.280747778,9.5,84.8269203
49,0.280997222,9.5,84.72557037
50,0.281246389,9.5,84.69240991
51,0.281626667,9.5,85.64667999
52,0.281991111,9.5,80.90526764
53,0.282243333,9.5,90.11607225
54,0.282494722,9.5,99.49987331
55,0.282745,9.5,93.53577598
56,0.282997222,9.5,87.67561166
57,0.283380278,9.500563333,81.97378174
58,0.283745556,9.504946667,84.51921422
59,0.283995,9.50794,82.33393767
60,0.284246389,9.510956667,79.7243245
61,0.284495556,9.513946667,76.41491838
62,0.284745278,9.516943333,81.26001909
63,0.285127222,9.521526667,86.54799124
64,0.285488333,9.52586,90.28776504
65,0.285738333,9.52886,91.13633981
66,0.285993611,9.531923333,90.64539936
67,0.2862475,9.53497,93.9984742
68,0.286493333,9.53792,89.76474815
69,0.286878889,9.542546667,84.72322834
70,0.287246389,9.546956667,85.5053352
71,0.287497222,9.549966667,85.42481283
72,0.287745833,9.55295,81.09944799
73,0.287995556,9.555946667,74.64148767
74,0.288246667,9.55896,70.47572063
75,0.288628611,9.563543333,67.41187204
76,0.288993333,9.56792,72.07884909
77,0.289240833,9.57089,71.03631204
78,0.289489722,9.573876667,66.97560501
79,0.289740833,9.57689,67.7682151
80,0.289990278,9.579883333,72.28020415
81,0.290370278,9.584443333,76.33990896
82,0.290732778,9.588793333,70.01739558
83,0.290982222,9.591786667,68.74549514
84,0.291231111,9.594773333,67.41968308
85,0.291481389,9.597776667,69.36524943
86,0.291731667,9.60078,71.68443621
87,0.292112778,9.605353333,73.81278409
88,0.292479167,9.60975,68.98456773
89,0.292731111,9.612773333,70.31257679
90,0.292982778,9.615793333,68.3489776
91,0.293235,9.61882,64.50877838
92,0.293484444,9.621813333,61.77946818
93,0.293865278,9.626383333,58.62938285
94,0.294226111,9.630713333,56.47849816
95,0.294472778,9.633673333,57.98512737
96,0.294718056,9.636616667,56.70246194
97,0.294966667,9.6396,55.31434139
98,0.2952175,9.64261,52.28780211
99,0.295600278,9.647203333,49.58850813
100,0.295965833,9.65159,48.27311257
101,0.296215556,9.654586667,51.84636516
102,0.296466111,9.657593333,49.53253727
103,0.296713333,9.66056,46.86587489
104,0.296960833,9.66353,52.75420213
105,0.297338333,9.66806,58.43290223
106,0.297699167,9.67239,54.65842295
107,0.297948889,9.675386667,59.03826256
108,0.2981975,9.67837,56.51460109
109,0.298442222,9.681306667,56.51085046
110,0.298689722,9.684276667,54.99847026
111,0.299070833,9.68885,54.70575851
112,0.299435833,9.69323,56.9011857
113,0.299689444,9.696273333,60.4596948
114,0.299943611,9.699323333,59.57468019
115,0.300196389,9.701178333,60.77625525
116,0.300445,9.70267,63.31217097
117,0.300823333,9.70494,65.01215111
118,0.301184167,9.707105,67.30451201
119,0.301432778,9.708596667,64.58761178
120,0.301680278,9.710081667,63.22805551
121,0.301930833,9.711585,64.37429
122,0.302181111,9.713086667,63.95882684
123,0.302557778,9.715346667,64.46092063
124,0.302919722,9.717518333,63.01679945
125,0.303166944,9.719001667,72.43023095
126,0.303416667,9.7205,72.82954765
127,0.303665278,9.721991667,74.27271903
128,0.303915833,9.723495,72.95968396
129,0.304300278,9.725801667,70.98861418
130,0.304670556,9.728023333,71.5240978
131,0.304919722,9.729518333,72.68559812
132,0.305168056,9.731008333,73.63272545
133,0.3054225,9.732535,75.33916169
134,0.305671944,9.734031667,78.41161117
135,0.306048333,9.73629,81.81059105
136,0.306409444,9.738456667,82.62675132
137,0.306658056,9.739948333,77.3677466
138,0.30691,9.74146,82.70903947
139,0.307160278,9.742961667,82.25425917
140,0.307408056,9.744448333,83.42518827
141,0.307790556,9.746743333,84.86594115
142,0.308157222,9.748943333,83.3435861
143,0.308408611,9.750451667,82.78367688
144,0.308659444,9.751956667,86.01093778
145,0.308910278,9.753461667,87.50973758
146,0.309162222,9.754973333,86.09467936
147,0.309546389,9.757278333,84.67447012
148,0.309909722,9.759458333,85.10748232
149,0.310156667,9.76094,89.21576897
150,0.310413889,9.762483333,88.53108016
151,0.310665556,9.763993333,87.78635625
152,0.310914167,9.765485,89.30989488
153,0.311294167,9.767765,90.0782955
154,0.311656944,9.769941667,86.54741142
155,0.31191,9.77146,87.41199762
156,0.312157778,9.772946667,86.72923182
157,0.312406944,9.774441667,84.8843763
158,0.312656389,9.775938333,82.76870314
159,0.313041944,9.778251667,81.10646105
160,0.313405833,9.780435,84.24441477
161,0.313656389,9.781938333,85.45570868
162,0.313908333,9.78345,85.43945536
163,0.314161389,9.784968333,91.11383122
164,0.314409167,9.786455,87.574809
165,0.314787222,9.788723333,83.12903105
166,0.315149167,9.790895,83.00383742
167,0.315398889,9.792393333,78.63405936
168,0.315650833,9.793905,76.65947433
169,0.3159,9.7954,75.48677331
170,0.316146111,9.796876667,74.58494785
171,0.316526944,9.799161667,74.54119059
172,0.316892778,9.8,72.87463824
173,0.317143056,9.8,74.15805858
174,0.317391389,9.8,78.10477487
175,0.317640278,9.8,77.95761314
176,0.317890556,9.8,71.23455761
177,0.318266667,9.8,64.61339018
178,0.318626944,9.8,64.68057072
179,0.318878056,9.8,61.21986021
180,0.319131944,9.8,62.55621339
181,0.319379722,9.8,62.54124225
182,0.319627222,9.8,61.17587465
183,0.320003611,9.8,60.60131809
184,0.320362222,9.8,61.18762402
185,0.320610833,9.8,61.00869537
186,0.320858056,9.8,59.28201791
187,0.321108333,9.8,56.19562391
188,0.321359167,9.8,53.8149441
189,0.321742778,9.8,50.62782301
190,0.322104444,9.8,51.90900382
191,0.322353889,9.8,51.3499893
192,0.322601944,9.8,49.09642881
193,0.322852778,9.8,48.01989308
194,0.323106111,9.8,46.84032153
195,0.323493333,9.8,46.0862792
196,0.323856944,9.8,44.74146986
197,0.324107778,9.8,43.73028013
198,0.324353056,9.8,45.22575423
199,0.324600278,9.8,48.62384185
200,0.324848611,9.8,54.17619726
201,0.325223889,9.8,59.78254801
202,0.325581111,9.8,53.29689097
203,0.325829722,9.8,52.42625254
204,0.326080278,9.8,49.11076279
205,0.326326944,9.8,49.99429841
206,0.326576389,9.8,54.02704096
207,0.326961111,9.8,58.34406736
208,0.327326667,9.8,56.31631965
209,0.327575278,9.8,60.82318138
210,0.327823611,9.8,57.63626095
211,0.328072222,9.8,59.12797291
212,0.328323333,9.8,56.85614189
213,0.328706389,9.8,53.97118157
214,0.329071667,9.8,53.95301433
215,0.329321389,9.8,52.96018671
216,0.329570833,9.8,51.73948256
217,0.3298175,9.8,50.77940444
218,0.330066944,9.8,50.45962986
219,0.330440833,9.8,49.73178423
220,0.330800556,9.8,48.45219326
221,0.3310475,9.8,48.02365364
222,0.331295833,9.8,48.33840234
223,0.331548056,9.8,47.21545765
224,0.331796667,9.8,51.98843416
225,0.332178333,9.8,57.17792423
226,0.332540556,9.8,56.1965518
227,0.332790833,9.8,54.83173007
228,0.333043056,9.8,57.26814963
229,0.333296944,9.8,57.51543603
230,0.333548889,9.8,57.65279697
231,0.333931944,9.8,58.24609639
232,0.3342975,9.8,57.64928511
233,0.334548611,9.8,59.10289846
234,0.334799167,9.8,62.68407172
235,0.335052222,9.8,64.36592881
236,0.335305278,9.8,63.3843792
237,0.335690278,9.8,61.95472935
238,0.336058333,9.8,64.84830713
239,0.336307778,9.8,63.99197747
240,0.336555278,9.8,63.29905876
241,0.336804167,9.8,61.95806038
242,0.337055278,9.8,62.21394791
243,0.337436944,9.8,63.47892294
244,0.337801667,9.8,63.48520453
245,0.338051389,9.8,64.74131268
246,0.338301667,9.8,62.54213657
247,0.338552222,9.8,66.18567098
248,0.338804167,9.8,65.61965702
249,0.339186944,9.8,63.83249637
250,0.339551667,9.8,65.94591386
251,0.339800833,9.8,68.63808453
252,0.340054167,9.8,70.62182123
253,0.340303333,9.8,71.18458291
254,0.340553889,9.8,74.15244428
255,0.340938889,9.8,77.84606553
256,0.341298889,9.8,77.53363021
257,0.341548056,9.8,79.55099358
258,0.341795556,9.8,82.50157811
259,0.342043333,9.8,78.95951551
260,0.342291944,9.8,77.52974257
261,0.342665833,9.8,76.44581345
262,0.343029444,9.8,75.76979909
263,0.343282222,9.8,76.09217298
264,0.343532778,9.8,76.46589196
265,0.343781111,9.8,79.78015071
266,0.344028889,9.8,80.58089466
267,0.344411111,9.8,80.03352208
268,0.344778333,9.8,80.85272678
269,0.345027778,9.8,81.75530316
270,0.345276111,9.8,81.00766967
271,0.345522778,9.8,78.69703665
272,0.3457725,9.8,82.48088675
273,0.346156944,9.8,86.56567933
274,0.346526111,9.8,86.23516368
275,0.346777222,9.8,88.13651066
276,0.347026944,9.8,90.98675778
277,0.347278333,9.8,89.92968345
278,0.347530278,9.8,92.44219968
279,0.347912222,9.8,95.1826662
280,0.348276111,9.8,100.3732517
281,0.348526111,9.8,103.5468276
282,0.348780278,9.8,104.0194987
283,0.349031944,9.8,107.5516197
284,0.349283611,9.8,106.3349833
285,0.349656667,9.8,104.5338991
286,0.3500175,9.800105,105.6516881
287,0.3502725,9.801635,102.1204734
288,0.350524722,9.803148333,100.0115504
289,0.350773056,9.804638333,99.73926334
290,0.351022778,9.806136667,99.3253114
291,0.3514025,9.808415,99.14513655
292,0.351765556,9.810593333,98.32352535
293,0.352013056,9.812078333,95.86319749
294,0.352261667,9.81357,95.54244607
295,0.352512222,9.815073333,95.08783087
296,0.352764167,9.816585,92.8240939
297,0.353142778,9.818856667,91.07469099
298,0.353507222,9.821043333,92.97253341
299,0.353753889,9.822523333,91.95544225
300,0.354006944,9.824041667,91.4608458
301,0.354256389,9.825538333,91.24519635
302,0.354504722,9.827028333,88.1077632
303,0.354876944,9.829261667,85.16496917
304,0.355233889,9.831403333,81.96782117
305,0.355483889,9.832903333,80.20507705
306,0.355736667,9.83442,82.16864668
307,0.355988056,9.835928333,80.10384849
308,0.356239167,9.837435,79.15797882
309,0.356615833,9.839695,77.36384646
310,0.356975,9.84185,75.22285582
311,0.357223333,9.84334,72.28513466
312,0.357471944,9.844831667,72.4333352
313,0.357724167,9.846345,74.53684195
314,0.357975278,9.847851667,77.05192766
315,0.358358333,9.85015,79.52520355
316,0.358723611,9.852341667,79.98542633
317,0.358972222,9.853833333,79.95969359
318,0.359222778,9.855336667,80.2778055
319,0.359473889,9.856843333,81.89530755
320,0.359723333,9.85834,82.98900874
321,0.360100833,9.860605,84.18862637
322,0.360461667,9.86277,80.88199715
323,0.360706667,9.86424,79.50654137
324,0.360956111,9.865736667,76.22094892
325,0.361206389,9.867238333,76.53233279
326,0.361454722,9.868728333,79.49291205
327,0.361830556,9.870983333,82.56259242
328,0.362190278,9.873141667,85.29602191
329,0.362438056,9.874628333,86.07043278
330,0.362688333,9.87613,83.38027134
331,0.362934444,9.877606667,84.95454254
332,0.36318,9.87908,83.22919847
333,0.363556389,9.881338333,81.46646407
334,0.363916667,9.8835,81.60936115
335,0.364161389,9.884968333,79.40299165
336,0.364408889,9.886453333,77.13930384
337,0.364655556,9.887933333,72.86618244
338,0.364902222,9.889413333,74.87437939
339,0.365278056,9.891668333,76.40732482
340,0.365637778,9.893826667,77.05662244
341,0.365885556,9.895313333,77.82394162
342,0.366136111,9.896816667,78.58904888
343,0.366381944,9.898291667,77.39564564
344,0.366631111,9.899786667,76.45307571
345,0.367013056,9.9,75.36880823
346,0.367376944,9.9,73.72396731
347,0.367629167,9.9,73.06804317
348,0.367882222,9.9,76.26305992
349,0.368130833,9.9,75.93276672
350,0.368381944,9.9,79.74928475
351,0.368771111,9.9,83.24817241
352,0.369138611,9.9,82.48858044
353,0.369386111,9.9,81.15162199
354,0.369638056,9.9,81.1418223
355,0.369886944,9.9,82.20190155
356,0.370136389,9.9,81.40717897
357,0.370518611,9.9,80.9030819
358,0.370882778,9.9,79.51522518
359,0.371130556,9.9,78.48068508
360,0.371382778,9.9,77.51097439
361,0.371635,9.9,73.98432379
362,0.371885,9.9,73.7150449
363,0.372274444,9.9,73.79917078
364,0.372640278,9.9,73.94682017
365,0.372886667,9.9,71.92925285
366,0.373136389,9.9,69.55332096
367,0.373395556,9.9,72.20470459
368,0.373648611,9.9,74.15328691
369,0.374031944,9.9,75.55824731
370,0.374398889,9.9,75.961279
371,0.374648611,9.9,77.06168448
372,0.374900833,9.9,77.51816757
373,0.375152778,9.9,77.99682701
374,0.375402222,9.9,78.6922038
375,0.375774444,9.9,79.59219314
376,0.376130556,9.9,80.42747498
377,0.376379167,9.9,80.32216739
378,0.376626667,9.9,79.52414761
379,0.376875833,9.9,78.52511929
380,0.377129167,9.9,77.28277401
381,0.377509167,9.9,75.69191578
382,0.377872778,9.9,75.89000644
383,0.3781225,9.9,75.67811092
384,0.378374444,9.9,72.51176426
385,0.378623056,9.9,76.05195786
386,0.378874722,9.9,75.38963716
387,0.379253611,9.9,74.2025298
388,0.379616389,9.9,72.97017922
389,0.379866944,9.9,75.80093549
390,0.380117778,9.9,78.34832917
391,0.380369444,9.9,77.76046012
392,0.3806225,9.9,82.02545389
393,0.380999722,9.9,87.19688506
394,0.381358889,9.9,88.9834816
395,0.3816075,9.9,92.46795902
396,0.381858889,9.9,94.59881759
397,0.382111944,9.9,94.37960861
398,0.3823625,9.9,97.87655582
399,0.382746944,9.9,100.8017955
400,0.383110833,9.9,104.0867935
401,0.383364722,9.900188333,105.2011633
402,0.383613056,9.901678333,104.2802034
403,0.3838625,9.903175,106.8143546
404,0.384111111,9.904666667,107.9772056
405,0.384492222,9.906953333,109.109393
406,0.384858889,9.909153333,108.4813996
407,0.385106389,9.910638333,107.1537799
408,0.385353056,9.912118333,105.9972441
409,0.385599444,9.913596667,101.9816675
410,0.385846944,9.915081667,99.39077045
411,0.386223056,9.917338333,96.62998291
412,0.386583611,9.919501667,92.60465881
413,0.386834167,9.921005,91.96146277
414,0.387083333,9.9225,92.82601853
415,0.387332222,9.923993333,89.11995073
416,0.387583056,9.925498333,89.71070844
417,0.387966111,9.927796667,90.85299087
418,0.38833,9.92998,92.29796617
419,0.388583889,9.931503333,90.15567312
420,0.388836111,9.933016667,87.24216806
421,0.389089167,9.934535,82.46100764
422,0.389338611,9.936031667,78.97340175
423,0.389708889,9.938253333,75.83224795
424,0.390063333,9.94038,74.97225761
425,0.390311667,9.94187,71.20580348
426,0.390560278,9.943361667,76.48997004
427,0.390806389,9.944838333,77.51316914
428,0.391051944,9.946311667,79.76838811
429,0.3914375,9.948625,80.78549192
430,0.391802222,9.950813333,80.04219231
431,0.392049444,9.952296667,80.46752956
432,0.392298333,9.95379,79.16021769
433,0.392550556,9.955303333,79.26908659
434,0.392800833,9.956805,78.45895686
435,0.393184444,9.959106667,78.4026091
436,0.393545556,9.961273333,78.89531658
437,0.393791389,9.962748333,77.4298091
438,0.394039167,9.964235,75.03729498
439,0.394290278,9.965741667,74.46592839
440,0.394540556,9.967243333,73.22757178
441,0.394924167,9.969545,70.90257259
442,0.395289722,9.971738333,70.0017052
443,0.395538333,9.97323,68.91168287
444,0.395786944,9.974721667,70.19354781
445,0.396036667,9.97622,67.13269348
446,0.396286111,9.977716667,69.40947212
447,0.396664444,9.979986667,72.82167378
448,0.397023333,9.98214,76.16966166
449,0.397274722,9.983648333,74.70947035
450,0.397527778,9.985166667,73.68780467
451,0.397778889,9.986673333,74.40991158
452,0.398029444,9.988176667,74.83062047
453,0.39841,9.99046,74.96807075
454,0.39877,9.99262,75.41657981
455,0.399014444,9.994086667,73.53867164
456,0.399261944,9.995571667,71.74998521
457,0.399514167,9.997085,67.2856439
458,0.399766389,9.998598333,65.7040232
459,0.400148056,10,63.70745557
460,0.400509167,10,60.40105223
461,0.400759444,10,61.77530844
462,0.401007222,10,63.73732933
463,0.401253056,10,62.00141597
464,0.401498889,10,61.87418089
465,0.401881389,10,62.04095841
466,0.402249167,10,63.38091147
467,0.402497778,10,61.75736023
468,0.402748889,10,61.33188115
469,0.403001111,10,60.27296271
470,0.403254722,10,64.78703439
471,0.403638611,10,68.59315454
472,0.404004444,10,69.90012245
473,0.404256389,10,68.62001255
474,0.404505278,10,66.322259
475,0.404753611,10,66.24781307
476,0.405005,10,66.55464997
477,0.4053775,10,67.48505106
478,0.405734722,10,64.40640293
479,0.4059825,10,63.86202726
480,0.40623,10,64.44683505
481,0.406478333,10,66.77513109
482,0.40673,10,70.07826877
483,0.407100278,10,72.73744735
484,0.407456389,10,73.60537638
485,0.4077075,10,71.60412166
486,0.407958056,10,70.71419542
487,0.408209167,10,75.24322832
488,0.408460833,10,76.22365336
489,0.40884,10,77.96035484
490,0.409205556,10,77.8317029
491,0.409455833,10,78.92110282
492,0.409706944,10,78.80247032
493,0.409958056,10,76.23479902
494,0.410209444,10,77.02445121
495,0.410588889,10,76.70848612
496,0.410951667,10,74.86946638
497,0.4112,10,72.53348998
498,0.411449444,10,71.98654163
499,0.411698889,10,72.74150668
500,0.4119475,10,70.08580502
501,0.412321389,10,67.7130233
502,0.412679167,10,69.35905238
503,0.412927778,10,70.79318169
504,0.413176389,10,65.87924445
505,0.413423056,10,66.15655145
506,0.413676389,10,63.52649061
507,0.414053611,10,60.77183871
508,0.414412778,10,57.50007289
509,0.4146575,10,60.18569693
510,0.414906389,10,60.50010368
511,0.415153056,10,61.74790648
512,0.415398611,10,61.79801252
513,0.415767778,10,62.56031271
514,0.416125278,10,62.56920044
515,0.416374722,10,64.45681627
516,0.416623056,10,62.14668357
517,0.416873611,10.00124167,59.99964338
518,0.417121667,10.00273,59.67324057
519,0.417495556,10.00497333,58.58323069
520,0.417859444,10.00715667,58.30802661
521,0.418110278,10.00866167,56.41993832
522,0.4183575,10.010145,57.27424535
523,0.418609444,10.01165667,59.60342076
524,0.418860833,10.013165,60.97425413
525,0.419245556,10.01547333,62.14231076
526,0.419611944,10.01767167,62.25017218
527,0.419860556,10.01916333,62.02505776
528,0.420110556,10.02066333,65.03970512
529,0.420361111,10.02216667,61.69478595
530,0.420610278,10.02366167,59.73272223
531,0.420991389,10.02594833,58.05420256
532,0.421355,10.02813,56.35837056
533,0.421604444,10.02962667,55.05755454
534,0.421856111,10.03113667,57.00357719
535,0.42211,10.03266,57.50618279
536,0.422363889,10.03418333,60.36843363
537,0.422750556,10.03650333,63.41798941
538,0.423116944,10.03870167,64.82705921
539,0.423365556,10.04019333,66.94467088
540,0.423614167,10.041685,66.29807811
541,0.423861667,10.04317,62.78805874
542,0.42411,10.04466,63.34666816
543,0.424491111,10.04694667,64.16681338
544,0.4248525,10.049115,64.20309078
545,0.425101667,10.05061,64.05372259
546,0.425353611,10.05212167,71.2364313
547,0.425601667,10.05361,70.77328006
548,0.425851111,10.05510667,73.11425051
549,0.426233611,10.05740167,75.11224878
550,0.426596389,10.05957833,75.51748661
551,0.426851389,10.06110833,75.3289564
552,0.427103889,10.06262333,74.51769853
553,0.427350278,10.06410167,75.25924346
554,0.427598889,10.06559333,73.21577451
555,0.427982778,10.06789667,71.28162522
556,0.42835,10.0701,69.15923789
557,0.428601389,10.07160833,69.08993149
558,0.428849722,10.07309833,67.68033082
559,0.429098333,10.07459,67.76790664
