Meas,Time,Temperature,Vmax
1,1.1668,9.5104,190.108628
2,1.167138056,9.536768333,191.2481083
3,1.167464444,9.562226667,191.9908101
4,1.167709167,9.581315,194.13132
5,1.167956944,9.600641667,194.7084737
6,1.168204167,9.619925,195.7822564
7,1.168454722,9.639468333,192.1336391
8,1.1687875,9.665425,188.4796822
9,1.169112778,9.690796667,191.7046743
10,1.169361111,9.710166667,190.3195209
11,1.169608611,9.729471667,190.4884451
12,1.169858056,9.748928333,194.0938612
13,1.170113333,9.76884,190.5192221
14,1.170449444,9.795056667,186.5168031
15,1.170775833,9.820515,181.2849235
16,1.1710225,9.839755,176.2467488
17,1.171273889,9.859363333,176.2872265
18,1.171522222,9.878733333,175.9815751
19,1.171766944,9.897821667,176.6553076
20,1.172095,9.92341,176.5523464
21,1.172421111,9.948846667,177.1933104
22,1.172668333,9.96813,174.8349385
23,1.1729175,9.987565,171.3102279
24,1.173164444,10.00682667,174.6569779
25,1.173411944,10.02613167,171.793653
26,1.173748056,10.05234833,169.3012545
27,1.174075278,10.07787167,170.7900755
28,1.174322222,10.09713333,172.621174
29,1.174574167,10.116785,171.5358104
30,1.174823889,10.13626333,172.5622355
31,1.175073056,10.15569833,175.8351113
32,1.175406667,10.18172,178.8042569
33,1.175732778,10.20715667,176.7449664
34,1.175977778,10.22626667,176.0856991
35,1.1762225,10.245355,175.8730848
36,1.176469167,10.264595,177.1648118
37,1.176716944,10.28392167,176.0962819
38,1.177049722,10.30987833,175.4696533
39,1.177376389,10.33535833,177.3785168
40,1.177624167,10.354685,175.6174143
41,1.177875278,10.37427167,180.1258818
42,1.178126111,10.39383667,177.9457991
43,1.178377222,10.41342333,176.161379
44,1.178708889,10.43929333,173.0625
45,1.179035833,10.464795,171.8941669
46,1.1792825,10.484035,172.1148836
47,1.179528333,10.50321,170.5782058
48,1.179778889,10.52275333,164.0572415
49,1.180028333,10.54221,160.0214833
50,1.180368333,10.56873,156.3737189
51,1.180698889,10.59451333,154.1068743
52,1.1809475,10.613905,153.958995
53,1.1812025,10.633795,157.4783765
54,1.181450278,10.65312167,159.0106468
55,1.181696667,10.67234,160.5843411
56,1.182039444,10.69907667,161.7672279
57,1.182374444,10.72520667,162.1545947
58,1.182620556,10.74440333,164.7290074
59,1.182864722,10.76344833,165.5268328
60,1.183113333,10.78284,161.1250764
61,1.183363333,10.7991,161.8275866
62,1.183699722,10.78900833,162.4992527
63,1.184028889,10.77913333,161.3102976
64,1.184276389,10.77170833,158.5695562
65,1.184523889,10.76428333,160.1142562
66,1.184773333,10.7568,159.490533
67,1.185022778,10.74931667,158.5071617
68,1.185359167,10.739225,157.8097517
69,1.185690556,10.72928333,160.2009772
70,1.185937222,10.72188333,163.0991454
71,1.186185,10.71445,167.4466254
72,1.186430833,10.707075,169.2818833
73,1.186679167,10.699625,175.6375858
74,1.187013611,10.68959167,181.614018
75,1.187340278,10.67979167,182.6086286
76,1.187586944,10.67239167,180.2627453
77,1.187835278,10.66494167,180.2572141
78,1.1880875,10.657375,179.0760664
79,1.188338889,10.64983333,178.0462744
80,1.1886725,10.639825,176.2678496
81,1.189000556,10.62998333,179.4611689
82,1.189246111,10.62261667,177.6977953
83,1.189494722,10.61515833,178.0941434
84,1.189746667,10.6076,183.5065264
85,1.189996944,10.60009167,187.5190475
86,1.190327222,10.59018333,191.1113766
87,1.190653889,10.58038333,195.1727959
88,1.190903611,10.57289167,193.4291898
89,1.191155,10.56535,192.1428157
90,1.191400833,10.557975,191.7673503
91,1.191648333,10.55055,192.0853714
92,1.191981944,10.54054167,193.4197382
93,1.192308889,10.53073333,200.2762394
94,1.192555556,10.52333333,207.3610541
95,1.1928025,10.515925,208.4268492
96,1.193051667,10.50845,206.3904448
97,1.193301944,10.50094167,214.6383394
98,1.193638333,10.49085,221.9977703
99,1.193964722,10.48105833,222.4772432
100,1.1942125,10.473625,219.1690166
101,1.194463889,10.46608333,217.893129
102,1.194713333,10.4586,214.6419972
103,1.194965278,10.45104167,214.2992037
104,1.1953025,10.440925,213.7512261
105,1.195630556,10.43108333,214.474164
106,1.195879167,10.423625,215.7176278
107,1.1961275,10.416175,215.674182
108,1.196375278,10.40874167,212.0238831
109,1.1966225,10.401325,212.480421
110,1.196954444,10.39136667,212.631177
111,1.197284167,10.381475,208.6297089
112,1.1975375,10.373875,208.6684916
113,1.197789722,10.36630833,202.6733754
114,1.198039722,10.35880833,202.8891455
115,1.1982875,10.351375,204.9580801
116,1.198623056,10.34130833,207.0721501
117,1.198952778,10.33141667,207.083766
118,1.199200278,10.32399167,204.5945638
119,1.199448056,10.31655833,205.4869045
120,1.199693889,10.30918333,208.7437463
121,1.199941389,10.30175833,207.9537706
122,1.200273333,10.29672,207.4445662
123,1.2006,10.2928,210.1791213
124,1.200848056,10.28982333,210.8250297
125,1.2010975,10.28683,209.6000962
126,1.2013475,10.28383,207.9320733
127,1.201596944,10.28083667,205.0386315
128,1.201926111,10.27688667,201.8200779
129,1.202250556,10.27299333,205.1056458
130,1.202497222,10.27003333,204.2710394
131,1.202745,10.26706,207.5548648
132,1.202994167,10.26407,211.7147647
133,1.203241111,10.26110667,207.9742788
134,1.203571667,10.25714,203.9205015
135,1.203901667,10.25318,202.6480146
136,1.204151944,10.25017667,197.9313153
137,1.204402222,10.24717333,194.2320414
138,1.204653333,10.24416,196.6833002
139,1.204900556,10.24119333,200.1830509
140,1.205233611,10.23719667,202.6574789
141,1.205560278,10.23327667,203.5501159
142,1.205808611,10.23029667,203.7086999
143,1.206058889,10.22729333,197.9688942
144,1.206305833,10.22433,194.493162
145,1.206554167,10.22135,196.1930962
146,1.206886667,10.21736,197.7651081
147,1.207214722,10.21342333,196.2413442
148,1.207459722,10.21048333,195.7519834
149,1.207709444,10.20748667,197.5778483
150,1.207964167,10.20443,197.4343177
151,1.208213333,10.20144,198.6726291
152,1.208541667,10.1975,200.0008511
153,1.208866944,10.19359667,198.9701721
154,1.209116111,10.19060667,198.5902276
155,1.209364722,10.18762333,197.4732955
156,1.209614444,10.18462667,198.15359
157,1.209863611,10.18163667,199.2903658
158,1.210199444,10.17760667,200.3634745
159,1.210527222,10.17367333,203.4492098
160,1.2107775,10.17067,204.609519
161,1.211026389,10.16768333,206.0599774
162,1.211273611,10.16471667,204.2792094
163,1.211522222,10.16173333,197.9008205
164,1.211856667,10.15772,191.3239797
165,1.212184444,10.15378667,189.7292644
166,1.212428611,10.15085667,191.3256684
167,1.212678889,10.14785333,193.7757709
168,1.212929444,10.14484667,189.4565826
169,1.213176944,10.14187667,189.7173782
170,1.213511667,10.13786,190.1431923
171,1.213841389,10.13390333,191.0637993
172,1.214089722,10.13092333,192.4983628
173,1.214344722,10.12786333,192.1050572
174,1.214595278,10.12485667,191.7652304
175,1.214846667,10.12184,188.9104556
176,1.215184444,10.11778667,184.7157637
177,1.215513333,10.11384,183.6165968
178,1.215761111,10.11086667,182.4750136
179,1.216008611,10.10789667,182.6213628
180,1.2162575,10.10491,177.102243
181,1.216506944,10.10191667,176.2507166
182,1.216845833,10.10645,175.6639673
183,1.217176389,10.11835,174.3334968
184,1.217425278,10.12731,170.0451941
185,1.217671111,10.13616,166.5249493
186,1.217918611,10.14507,162.3072423
187,1.218168611,10.15407,156.4354296
188,1.218503889,10.16614,151.1875174
189,1.218831389,10.17793,154.5186899
190,1.219078889,10.18684,158.3203643
191,1.219326389,10.19575,160.1755055
192,1.219575,10.2047,164.9082777
193,1.219828333,10.21382,166.1805574
194,1.220157222,10.22566,167.2196744
195,1.220483333,10.2374,163.1646108
196,1.2207375,10.24655,161.5936424
197,1.220989722,10.25563,160.5131265
198,1.221241667,10.2647,163.7893503
199,1.221491389,10.27369,165.6722144
200,1.221815833,10.28537,166.5744175
201,1.222138056,10.29697,167.0050444
202,1.222385556,10.30588,168.5931866
203,1.222635,10.31486,171.3812657
204,1.222886667,10.32392,178.8315727
205,1.223136667,10.33292,180.9973636
206,1.223473889,10.34506,183.1271599
207,1.223803056,10.35691,186.4683011
208,1.224051389,10.36585,190.7572308
209,1.224301944,10.37487,193.714281
210,1.224550278,10.38381,194.7040099
211,1.224796111,10.39266,194.6317278
212,1.225128889,10.40464,194.8176328
213,1.225458333,10.4165,199.4658931
214,1.225704444,10.42536,204.2951134
215,1.225955556,10.4344,203.0721028
216,1.226206111,10.44342,204.1564006
217,1.226452778,10.4523,212.9481837
218,1.226783611,10.46421,221.4502458
219,1.227108611,10.47591,223.5522013
220,1.227354722,10.48477,219.1864329
221,1.2276025,10.49369,219.9943831
222,1.227850833,10.50263,216.6343206
223,1.228099444,10.51158,219.0020009
224,1.228427222,10.52338,221.4208216
225,1.228751944,10.53507,221.9667424
226,1.229,10.544,224.066499
227,1.229246111,10.55286,229.6822523
228,1.2294925,10.56173,231.7663477
229,1.229738889,10.5706,239.263429
230,1.230068611,10.58247,245.8626978
231,1.230392222,10.59412,246.7583886
232,1.230641667,10.6031,247.3763467
233,1.23089,10.61204,239.5788446
234,1.231140278,10.62105,239.813555
235,1.231388056,10.62997,242.6696686
236,1.231717778,10.64184,245.3946472
237,1.232040556,10.65346,245.9966155
238,1.232285278,10.66227,247.9770449
239,1.232535556,10.67128,250.963673
240,1.232784722,10.68025,251.4995078
241,1.233031667,10.68914,246.1929854
242,1.233366111,10.69960667,240.8080678
243,1.2336925,10.69569,240.0973924
244,1.233937222,10.69275333,234.2924208
245,1.234187778,10.68974667,233.3536427
246,1.234438056,10.68674333,234.8243035
247,1.234688333,10.68374,235.2782299
248,1.235020833,10.67975,235.8899627
249,1.235349167,10.67581,236.3371478
250,1.235593889,10.67287333,236.8539575
251,1.235840556,10.66991333,235.7975172
252,1.236088333,10.66694,233.729194
253,1.236336667,10.66396,227.7930669
254,1.236672778,10.65992667,221.1496618
255,1.236998333,10.65602,219.3689113
256,1.237245,10.65306,216.0286564
257,1.237497222,10.65003333,214.2585721
258,1.237744722,10.64706333,216.7405438
259,1.23799,10.64412,218.7849668
260,1.238318889,10.64017333,220.5317721
261,1.238643889,10.63627333,223.4827755
262,1.238891389,10.63330333,229.3836868
263,1.239139167,10.63033,227.7649783
264,1.239387778,10.62734667,223.1597571
265,1.239636389,10.62436333,224.3089613
266,1.239971389,10.62034333,225.8070616
267,1.240303333,10.61636,225.0362299
268,1.240551944,10.61337667,225.6931086
269,1.240799444,10.61040667,225.0827247
270,1.241043333,10.60748,223.0733894
271,1.241293056,10.60448333,221.4449851
272,1.241629167,10.60045,219.0603037
273,1.241954444,10.59654667,221.6808666
274,1.242203889,10.59355333,222.5358206
275,1.2424525,10.59057,225.3654701
276,1.242698333,10.58762,224.1830826
277,1.242943333,10.58468,222.4365914
278,1.243275833,10.58069,220.7909614
279,1.243603889,10.57675333,221.0770222
280,1.243851389,10.57378333,223.8194025
281,1.244097222,10.57083333,221.2420584
282,1.244349444,10.56780667,222.4881169
283,1.244597222,10.56483333,219.5724701
284,1.244925,10.5609,215.8202775
285,1.2452475,10.55703,212.2024241
286,1.245496111,10.55404667,213.3320797
287,1.245742778,10.55108667,214.4948839
288,1.2459925,10.54809,213.536841
289,1.246243333,10.54508,217.1592674
290,1.246578889,10.54105333,221.3859942
291,1.246905833,10.53713,222.1040301
292,1.2471525,10.53417,223.3693369
293,1.247398611,10.53121667,222.6156661
294,1.247645833,10.52825,223.6165168
295,1.247893611,10.52527667,227.182165
296,1.248234444,10.52118667,229.1833966
297,1.248566389,10.51720333,230.4106543
298,1.248813056,10.51424333,230.6017871
299,1.249064444,10.51122667,230.3164786
300,1.249312778,10.50824667,227.4685051
301,1.249561944,10.50525667,227.8435021
302,1.249898611,10.50121667,228.5904515
303,1.250226389,10.50271667,230.1761531
304,1.250472222,10.50566667,231.1705635
305,1.250718889,10.50862667,227.7479233
306,1.250965833,10.51159,223.3508363
307,1.251215,10.51458,219.0234588
308,1.251545278,10.51854333,215.4597895
309,1.251870278,10.52244333,216.9785762
310,1.252120556,10.52544667,219.9905734
311,1.252366667,10.5284,218.8117377
312,1.252617778,10.53141333,220.3672097
313,1.252866389,10.53439667,218.2906991
314,1.253205278,10.53846333,215.6253195
315,1.253535,10.54242,212.7439175
316,1.253784444,10.54541333,212.157379
317,1.254034167,10.54841,210.1669314
318,1.254281667,10.55138,207.7056433
319,1.254532222,10.55438667,213.0721336
320,1.254865556,10.55838667,217.7509744
321,1.255194444,10.56233333,213.6997875
322,1.255445833,10.56535,216.7622619
323,1.255695278,10.56834333,219.8243571
324,1.255946389,10.57135667,221.4918082
325,1.256190833,10.57429,218.7593617
326,1.256525,10.5783,215.7837176
327,1.256854722,10.58225667,215.6747528
328,1.257098056,10.58517667,216.3393367
329,1.257342778,10.58811333,218.5190376
330,1.257591944,10.59110333,220.6048373
331,1.257844444,10.59413333,222.3627753
332,1.258180556,10.59816667,223.8460271
333,1.258513056,10.60215667,225.2019658
334,1.258766667,10.6052,227.3635424
335,1.259016111,10.60819333,229.3516964
336,1.259266944,10.61120333,230.8453835
337,1.259516667,10.6142,232.4780833
338,1.259851944,10.61822333,233.8193576
339,1.260179167,10.62215,231.7156963
340,1.260425833,10.62511,229.2266272
341,1.260676389,10.62811667,226.1524679
342,1.260925833,10.63111,224.3180481
343,1.261175,10.6341,223.9717481
344,1.261508333,10.6381,223.8650799
345,1.261835833,10.64203,218.9621048
346,1.262080556,10.64496667,218.9201762
347,1.262328056,10.64793667,220.8195777
348,1.262575,10.6509,223.1634705
349,1.262821667,10.65386,223.378173
350,1.263150278,10.65780333,223.0209232
351,1.263475,10.6617,225.3554808
352,1.263721389,10.66465667,223.1118094
353,1.263970278,10.66764333,215.9810231
354,1.264225,10.6707,211.8832358
355,1.2644725,10.67367,212.8463121
356,1.26481,10.67772,213.7476322
357,1.265141389,10.68169667,217.533481
358,1.26539,10.68468,222.6898558
359,1.265638611,10.68766333,227.6566074
360,1.265886111,10.69063333,232.2853759
361,1.266132222,10.69358667,229.7558786
362,1.266471111,10.69765333,226.6236502
363,1.266805278,10.69833667,227.2669199
364,1.267052222,10.69537333,224.2755459
365,1.267299722,10.69240333,229.528296
366,1.267545833,10.68945,231.2579089
367,1.267796944,10.68643667,237.2567579
368,1.268128611,10.68245667,243.3595216
369,1.268453889,10.67855333,245.2741754
370,1.268704167,10.67555,244.7104952
371,1.268955556,10.67253333,242.3145768
372,1.269205278,10.66953667,238.194297
373,1.269452778,10.66656667,234.6795131
374,1.2697825,10.66261,230.9102603
375,1.270108889,10.65869333,233.550536
376,1.270358333,10.6557,230.9912713
377,1.270606667,10.65272,231.0362931
378,1.270856389,10.64972333,230.857695
379,1.271108333,10.6467,228.5792699
380,1.271441111,10.64270667,226.4527206
381,1.271767778,10.63878667,226.8221751
382,1.272014722,10.63582333,231.2976487
383,1.272265278,10.63281667,230.6330136
384,1.272513611,10.62983667,229.8317085
385,1.272760278,10.62687667,229.7598887
386,1.273091389,10.62290333,229.4776235
387,1.273414722,10.61902333,232.6266383
388,1.273661389,10.61606333,237.6367112
389,1.273908056,10.61310333,237.6202433
390,1.274156667,10.61012,238.7065712
391,1.274405,10.60714,239.0309876
392,1.274741667,10.6031,238.7889628
393,1.2750675,10.59919,238.5292662
394,1.275316111,10.59620667,239.2086907
395,1.275563611,10.59323667,241.7563495
396,1.275812222,10.59025333,241.6708088
397,1.276062778,10.58724667,242.2534426
398,1.276399722,10.58320333,242.6856455
399,1.276725833,10.57929,240.7319441
400,1.276971111,10.57634667,245.759556
401,1.277219444,10.57336667,242.7438221
402,1.277471667,10.57034,240.9568784
403,1.277719167,10.56737,240.2922576
404,1.27805,10.5634,238.80665
405,1.278373611,10.55951667,234.7661604
406,1.278621111,10.55654667,233.0011742
407,1.278870278,10.55355667,230.5904481
408,1.279117222,10.55059333,228.4396496
409,1.279364167,10.54763,232.2190781
410,1.279701111,10.54358667,236.7497704
411,1.280032222,10.53961333,235.4193394
412,1.280279444,10.53664667,234.7276734
413,1.280524444,10.53370667,233.4109914
414,1.280775833,10.53069,235.9999597
415,1.281026389,10.52768333,239.870718
416,1.281358889,10.52369333,242.7110891
417,1.281684722,10.51978333,246.967193
418,1.281930556,10.51683333,250.8092015
419,1.282179167,10.51385,250.7956314
420,1.282425833,10.51089,248.2408984
421,1.282671667,10.50794,250.9636356
422,1.2830025,10.50397,253.4827733
423,1.283328056,10.50006333,256.733905
424,1.283578056,10.504405,259.8766878
425,1.283825,10.50885,256.8502848
426,1.284074444,10.51334,257.2243139
427,1.284323889,10.51783,256.9575077
428,1.284652778,10.52375,257.1775766
429,1.284973611,10.529525,257.7580466
430,1.285219167,10.533945,258.2591092
431,1.285470833,10.538475,254.8131921
432,1.285718056,10.542925,254.1429011
433,1.285964722,10.547365,253.5559525
434,1.286301111,10.55342,252.6152451
435,1.286630278,10.559345,255.3776584
436,1.286878889,10.56382,258.361943
437,1.287128056,10.568305,258.3681871
438,1.287376667,10.57278,256.4605047
439,1.287626111,10.57727,266.3678784
440,1.287964167,10.583355,275.3759574
441,1.288294167,10.589295,276.8869876
442,1.288542778,10.59377,277.507327
443,1.288791667,10.59825,278.620101
444,1.289039722,10.602715,277.5241309
445,1.289287222,10.60717,277.2562373
446,1.289620556,10.61317,277.0530011
447,1.289946111,10.61903,277.0505124
448,1.2901925,10.623465,274.6188698
449,1.290441944,10.627955,272.3555694
450,1.290691667,10.63245,270.5437435
451,1.290940278,10.636925,274.2934381
452,1.2912725,10.642905,277.3703533
453,1.291600833,10.648815,278.6753188
454,1.291848611,10.653275,278.7235116
455,1.292097778,10.65776,279.9398136
456,1.292347222,10.66225,279.0430621
457,1.292599722,10.666795,278.4034587
458,1.292928611,10.672715,277.8466217
459,1.293250278,10.678505,276.9109962
460,1.293496944,10.682945,276.3320503
461,1.293741944,10.687355,275.5440106
462,1.293990278,10.691825,274.1568549
463,1.294238889,10.6963,275.1391197
464,1.294575,10.70235,275.5694117
465,1.294903056,10.708255,270.5850444
466,1.295150833,10.712715,267.7978712
467,1.295400278,10.717205,268.7424518
468,1.295650278,10.721705,269.6690768
469,1.295897222,10.72615,267.9816477
470,1.296231667,10.73217,266.0059004
471,1.296557778,10.73804,264.8164984
472,1.296804722,10.742485,261.0123059
473,1.297053889,10.74697,257.4002692
474,1.2973025,10.751445,253.8196402
475,1.297550278,10.755905,252.5284884
476,1.29788,10.76184,250.9487456
477,1.298206944,10.767725,251.2157549
478,1.298456667,10.77222,250.5332315
479,1.298703333,10.77666,252.7996773
480,1.298950833,10.781115,254.5608993
481,1.299196667,10.78554,253.6639444
482,1.299535833,10.791645,252.5028131
483,1.299868611,10.797635,252.6056963
484,1.300114444,10.79725333,248.784116
485,1.300364444,10.79125333,250.8221098
486,1.300610278,10.78535333,252.9349593
487,1.300857778,10.77941333,258.4400999
488,1.301191389,10.77140667,263.6685752
489,1.301519444,10.76353333,266.2737192
490,1.301766111,10.75761333,270.8903717
491,1.302013056,10.75168667,270.5327086
492,1.302259444,10.74577333,267.0017761
493,1.302504444,10.73989333,266.1117563
494,1.302837222,10.73190667,265.5292901
495,1.303166944,10.72399333,267.6347867
496,1.3034175,10.71798,263.8680196
497,1.303666667,10.712,262.8014769
498,1.303915278,10.70603333,263.958096
499,1.304165833,10.70002,262.2645617
500,1.304502778,10.69193333,260.4383953
501,1.304832778,10.68401333,259.7164574
502,1.305079444,10.67809333,259.5565055
503,1.305326111,10.67217333,260.9712428
504,1.305572778,10.66625333,263.1903028
505,1.305819722,10.66032667,262.4597299
506,1.306149167,10.65242,261.4225961
507,1.30647,10.64472,264.1579414
508,1.306720556,10.63870667,268.5160472
509,1.306969722,10.63272667,267.6659638
510,1.307218611,10.62675333,266.9557774
511,1.307470833,10.6207,267.0148693
512,1.307807222,10.61262667,266.5798382
513,1.308138333,10.60468,266.8503097
