Meas,Time,Temperature,Vmax.og,Vmax.inst
1,0,10.60100667,73.9649669,73.9649669
2,0.000251389,10.60402333,73.06042431,73.06042431
3,0.000644445,10.60874,72.44137377,72.44137378
4,0.001018334,10.61322667,75.66280956,75.66280957
5,0.001267778,10.61622,76.15811249,76.1581125
6,0.001515556,10.61919333,76.29339151,76.29339152
7,0.001765556,10.62219333,78.50465229,78.50465231
8,0.002015,10.62518667,79.32449999,79.32450001
9,0.002398889,10.62979333,80.00327897,80.00327899
10,0.002763611,10.63417,83.3156313,83.31563133
11,0.003012778,10.63716,83.50423117,83.5042312
12,0.003266111,10.6402,86.78647333,86.78647336
13,0.003515278,10.64319,91.6794385,91.67943854
14,0.003771111,10.64626,90.85026778,90.85026782
15,0.004152222,10.65083333,89.59386718,89.59386722
16,0.004514167,10.65517667,90.00041747,90.00041752
17,0.004762778,10.65816,87.02100688,87.02100693
18,0.005016389,10.66120333,86.39873016,86.39873021
19,0.005270834,10.66425667,83.10930111,83.10930116
20,0.005519167,10.66723667,84.14443771,84.14443776
21,0.005899445,10.6718,85.18295772,85.18295778
22,0.006263889,10.67617333,82.65650133,82.65650139
23,0.0065125,10.67915667,80.27696089,80.27696095
24,0.006762778,10.68216,80.19911648,80.19911654
25,0.007012222,10.68515333,80.223923,80.22392306
26,0.007263611,10.68817,83.68313688,83.68313695
27,0.0076375,10.69265667,87.53067054,87.53067061
28,0.007997222,10.69697333,88.20426972,88.2042698
29,0.008243334,10.69992667,89.32885903,89.32885911
30,0.008491945,10.70291,88.28758171,88.28758179
31,0.008743056,10.70592333,88.976083,88.97608309
32,0.008995278,10.70895,90.39686233,90.39686242
33,0.009377778,10.71354,89.99787739,89.99787748
34,0.009740556,10.71789333,90.99445337,90.99445347
35,0.009991111,10.7209,91.67889105,91.67889115
36,0.010240556,10.72389333,93.34907713,93.34907724
37,0.010490834,10.72689667,89.06891582,89.06891593
38,0.010745,10.72994667,88.96016884,88.96016895
39,0.011126945,10.73453,89.93514564,89.93514575
40,0.011496111,10.73896,91.26573287,91.26573299
41,0.011748334,10.74198667,91.16954664,91.16954676
42,0.011997778,10.74498,90.92082608,90.9208262
43,0.012248056,10.74798333,90.76617197,90.7661721
44,0.012501111,10.75102,92.59606995,92.59607008
45,0.012885556,10.75563333,94.40423597,94.40423611
46,0.013250556,10.76001333,96.31938008,96.31938022
47,0.013498334,10.76298667,96.25309267,96.25309282
48,0.013749167,10.76599667,95.08912708,95.08912723
49,0.013999722,10.76900333,93.38362863,93.38362878
50,0.014248056,10.77198333,95.19693371,95.19693387
51,0.014640278,10.77669,96.90045069,96.90045085
52,0.015016667,10.78120667,97.55834818,97.55834835
53,0.015273334,10.78428667,93.08074982,93.08074998
54,0.015525,10.78730667,93.2103382,93.21033837
55,0.015779722,10.79036333,92.39696687,92.39696704
56,0.016035278,10.79343,88.27629942,88.27629958
57,0.016417222,10.79801333,83.62678447,83.62678463
58,0.016776667,10.79883667,80.95084777,80.95084793
59,0.017026945,10.797335,80.87912684,80.879127
60,0.017277222,10.79583333,81.25653458,81.25653474
61,0.017528611,10.794325,80.68892964,80.68892981
62,0.017778056,10.79282833,81.52424638,81.52424655
63,0.018164445,10.79051,82.61981579,82.61981596
64,0.018531945,10.788305,83.36653873,83.36653891
65,0.018778889,10.78682333,84.19048499,84.19048517
66,0.01903,10.78531667,85.17402398,85.17402417
67,0.019285834,10.78378167,84.81493319,84.81493338
68,0.019540834,10.78225167,88.25801933,88.25801953
69,0.019918889,10.77998333,91.80017385,91.80017406
70,0.020276945,10.777835,94.48914395,94.48914417
71,0.0205275,10.77633167,98.58919519,98.58919543
72,0.020777778,10.77483,104.6826972,104.6826975
73,0.02103,10.77331667,104.6067012,104.6067015
74,0.021283334,10.77179667,105.2607803,105.2607806
75,0.021668889,10.76948333,105.5606855,105.5606858
76,0.022031389,10.76730833,104.0152659,104.0152662
77,0.02228,10.76581667,106.1986863,106.1986866
78,0.022528611,10.764325,105.103442,105.1034423
79,0.022776389,10.76283833,105.3076966,105.3076969
80,0.023029445,10.76132,106.5396147,106.539615
81,0.023413056,10.75901833,107.8041657,107.804166
82,0.023776667,10.75683667,106.0971325,106.0971328
83,0.024021945,10.755365,107.084829,107.0848293
84,0.024268334,10.75388667,107.9896633,107.9896636
85,0.024517778,10.75239,103.7799796,103.7799799
86,0.024769167,10.75088167,103.7514653,103.7514656
87,0.025144445,10.74863,103.8732007,103.873201
88,0.025501111,10.74649,102.9340495,102.9340498
89,0.025748611,10.745005,102.2896901,102.2896904
90,0.025998889,10.74350333,99.07616211,99.07616242
91,0.026250278,10.741995,96.77167066,96.77167096
92,0.0265,10.74049667,94.94615989,94.94616019
93,0.026881667,10.73820667,92.65403188,92.65403217
94,0.027245556,10.73602333,88.36470116,88.36470144
95,0.027490278,10.734555,83.96718237,83.96718264
96,0.027741389,10.73304833,87.60588013,87.60588042
97,0.027992778,10.73154,85.93896415,85.93896444
98,0.028242222,10.73004333,91.31236138,91.31236169
99,0.028624167,10.72775167,96.97163923,96.97163956
100,0.028987778,10.72557,96.58578224,96.58578257
101,0.02924,10.72405667,91.74495837,91.74495869
102,0.029490556,10.72255333,91.4915868,91.49158712
103,0.029741389,10.72104833,92.98619626,92.98619659
104,0.029989445,10.71956,94.79701497,94.79701531
105,0.030365,10.71730667,95.67731152,95.67731187
106,0.030730278,10.715115,94.62413481,94.62413516
107,0.030985556,10.71358333,97.05945795,97.05945831
108,0.031237778,10.71207,95.98349823,95.98349859
109,0.031490556,10.71055333,93.23201309,93.23201344
110,0.031740834,10.70905167,94.07957454,94.0795749
111,0.032119167,10.70678167,95.26299594,95.2629963
112,0.032482222,10.70460333,98.06725049,98.06725087
113,0.032732222,10.70310333,97.09696662,97.096967
114,0.032984722,10.70158833,96.18973229,96.18973267
115,0.033236667,10.70007667,94.84858443,94.84858481
116,0.033487222,10.7,90.64370002,90.64370038
117,0.033861667,10.7,86.25823961,86.25823996
118,0.034221667,10.7,84.00497186,84.0049722
119,0.034476389,10.7,85.90291154,85.90291189
120,0.034729167,10.7,87.57835876,87.57835912
121,0.034982222,10.7,88.80633683,88.8063372
122,0.035230834,10.7,86.70217714,86.7021775
123,0.035615834,10.7,83.53938865,83.539389
124,0.035984445,10.7,85.56408105,85.56408142
125,0.036235556,10.7,83.3903262,83.39032656
126,0.036486111,10.7,81.24896935,81.2489697
127,0.036738889,10.7,84.96112231,84.96112268
128,0.036989167,10.7,83.97035678,83.97035715
129,0.037365,10.7,83.59054314,83.59054351
130,0.037723889,10.7,84.15917865,84.15917903
131,0.037973334,10.7,82.21240431,82.21240468
132,0.038225556,10.7,81.39158168,81.39158205
133,0.038479722,10.7,81.57934034,81.57934071
134,0.038733056,10.7,79.53496296,79.53496333
135,0.039116667,10.7,78.02127799,78.02127835
136,0.039487778,10.7,77.73472926,77.73472963
137,0.039740556,10.7,74.86279758,74.86279793
138,0.039992222,10.7,75.29002084,75.2900212
139,0.040246111,10.7,72.62289402,72.62289437
140,0.040498334,10.7,74.29276299,74.29276335
141,0.040884445,10.7,75.56483592,75.56483629
142,0.041248334,10.7,72.52550099,72.52550135
143,0.041496945,10.7,68.92141655,68.92141689
144,0.041746389,10.7,65.99112816,65.99112849
145,0.041998611,10.7,63.6360975,63.63609782
146,0.042249722,10.7,63.29242245,63.29242277
147,0.042638334,10.7,62.50932845,62.50932877
148,0.04301,10.7,60.82726239,60.8272627
149,0.043262222,10.7,60.79811205,60.79811236
150,0.043516945,10.7,62.24836372,62.24836404
151,0.043766945,10.7,62.55644565,62.55644598
152,0.044018889,10.7,63.32196695,63.32196728
153,0.044398056,10.7,62.82341746,62.82341779
154,0.044761667,10.7,62.63143864,62.63143897
155,0.0450175,10.7,60.46881635,60.46881667
156,0.0452725,10.7,63.24324878,63.24324912
157,0.045523889,10.7,62.13717189,62.13717223
158,0.045775834,10.7,63.52916903,63.52916938
159,0.046156111,10.7,66.24354855,66.24354891
160,0.046517222,10.7,69.20346865,69.20346903
161,0.046773889,10.7,71.82678419,71.82678459
162,0.047026945,10.7,71.78102113,71.78102153
163,0.047280278,10.7,74.47853161,74.47853203
164,0.047532222,10.7,74.45230402,74.45230444
165,0.047916945,10.7,74.14994369,74.14994411
166,0.048283056,10.7,74.47284459,74.47284502
167,0.048532778,10.7,75.02784507,75.0278455
168,0.0487825,10.7,72.8038651,72.80386552
169,0.049034167,10.7,70.76533144,70.76533185
170,0.049284167,10.7,69.60708636,69.60708677
171,0.049671389,10.7,68.30177353,68.30177394
172,0.050036111,10.70072,66.14459079,66.14459119
173,0.050287222,10.70222667,63.92325888,63.92325926
174,0.050539167,10.70373833,62.75466446,62.75466484
175,0.050789722,10.70524167,61.57206289,61.57206326
176,0.05104,10.70674333,62.18378096,62.18378134
177,0.051418334,10.70901333,62.60824638,62.60824676
178,0.051781389,10.71119167,59.80421502,59.80421539
179,0.052033334,10.71270333,56.75177657,56.75177692
180,0.052288334,10.71423333,55.75022418,55.75022453
181,0.052542222,10.71575667,54.17839413,54.17839447
182,0.052791945,10.717255,51.12427207,51.12427239
183,0.053172778,10.71954,48.56134252,48.56134283
184,0.053538334,10.72173333,45.39209089,45.39209118
185,0.053789445,10.72324,43.53028635,43.53028663
186,0.054041667,10.72475333,42.07250382,42.07250409
187,0.054293889,10.72626667,38.35897327,38.35897352
188,0.054544445,10.72777,41.09003291,41.09003318
189,0.054924445,10.73005,43.58857908,43.58857937
190,0.055282778,10.7322,43.84905759,43.84905788
191,0.055533056,10.73370167,46.63819603,46.63819634
192,0.055785,10.73521333,51.28425892,51.28425926
193,0.056036389,10.73672167,48.16676275,48.16676307
194,0.056291389,10.73825167,48.79359996,48.79360029
195,0.056678889,10.74057667,49.35969778,49.35969811
196,0.057044167,10.74276833,49.12280177,49.1228021
197,0.057298611,10.744295,49.81995494,49.81995528
198,0.057552222,10.74581667,50.06777856,50.06777891
199,0.057803334,10.74732333,52.02462079,52.02462115
200,0.058053889,10.74882667,55.50950022,55.50950061
201,0.058443334,10.75116333,58.47734558,58.47734599
202,0.058812222,10.75337667,59.97539784,59.97539826
203,0.059060278,10.754865,59.29178027,59.29178069
204,0.0593175,10.75640833,61.07339147,61.0733919
205,0.059570834,10.75792833,57.18967492,57.18967533
206,0.059820278,10.759425,55.80763265,55.80763305
207,0.060198334,10.76169333,54.99568106,54.99568146
208,0.060559722,10.76386167,52.76239298,52.76239336
209,0.060810834,10.76536833,55.83969473,55.83969514
210,0.06106,10.76686333,54.57645092,54.57645132
211,0.061312222,10.76837667,55.38817476,55.38817517
212,0.061564445,10.76989,50.61730046,50.61730083
213,0.061948334,10.77219333,45.6775997,45.67760004
214,0.062315,10.77439333,42.57567146,42.57567178
215,0.062564167,10.77588833,39.99849932,39.99849962
216,0.0628125,10.77737833,39.9598293,39.9598296
217,0.063064167,10.77888833,44.17497794,44.17497828
218,0.063318056,10.78041167,45.14792004,45.14792038
219,0.063693334,10.78266333,46.2040738,46.20407415
220,0.064052778,10.78482,48.57644667,48.57644704
221,0.064303889,10.78632667,45.30627118,45.30627153
222,0.064558056,10.78785167,46.05210312,46.05210348
223,0.064811111,10.78937,49.19229171,49.19229209
224,0.065068889,10.79091667,52.02458798,52.02458839
225,0.065453334,10.79322333,54.11338469,54.11338512
226,0.065820834,10.79542833,49.64122989,49.64123028
227,0.066071111,10.79693,50.8748001,50.8748005
228,0.066320556,10.79842667,49.47184417,49.47184457
229,0.066570278,10.799925,50.13509236,50.13509276
230,0.066824167,10.80144833,49.99891125,49.99891165
231,0.067197778,10.80369,50.16079921,50.16079962
232,0.067556945,10.805845,52.81688666,52.81688709
233,0.067808056,10.80735167,53.55301146,53.5530119
234,0.068058334,10.80885333,53.63889982,53.63890026
235,0.068311389,10.81037167,53.88086956,53.88087
236,0.068560834,10.81186833,54.82688728,54.82688773
237,0.068945834,10.81417833,55.80828886,55.80828933
238,0.069313056,10.81638167,56.22160181,56.22160228
239,0.069562778,10.81788,54.13440935,54.1344098
240,0.069813889,10.81938667,56.80373826,56.80373874
241,0.070067222,10.82090667,56.34247355,56.34247403
242,0.070313611,10.822385,56.32414157,56.32414205
243,0.07069,10.82464333,55.65678245,55.65678293
244,0.071057222,10.82684667,56.23888587,56.23888635
245,0.071308056,10.82835167,56.97376883,56.97376932
246,0.0715575,10.82984833,55.79385559,55.79385607
247,0.0718075,10.83134833,55.69301059,55.69301107
248,0.072062778,10.83288,53.13251204,53.1325125
249,0.072453889,10.83522667,50.7365853,50.73658575
250,0.072822778,10.83744,45.64212409,45.64212449
251,0.073073056,10.83894167,44.61953373,44.61953412
252,0.073323611,10.840445,44.99337152,44.99337192
253,0.073578334,10.84197333,45.62196893,45.62196934
254,0.073828056,10.84347167,45.12438335,45.12438376
255,0.074206111,10.84574,45.37513279,45.3751332
256,0.0745725,10.84793833,45.3980116,45.39801201
257,0.074823056,10.84944167,46.96816736,46.96816779
258,0.07507,10.85092333,48.24863062,48.24863106
259,0.075321111,10.85243,45.86816579,45.86816621
260,0.075571389,10.85393167,49.7507827,49.75078316
261,0.075953056,10.85622167,52.56348298,52.56348347
262,0.076318889,10.85841667,51.40196745,51.40196793
263,0.076573611,10.859945,49.4664203,49.46642076
264,0.076827778,10.86147,48.93053511,48.93053557
265,0.07708,10.86298333,48.84851173,48.84851219
266,0.077330556,10.86448667,44.77084043,44.77084085
267,0.0777175,10.86680833,40.81855175,40.81855214
268,0.078081667,10.86899333,38.67271143,38.6727118
269,0.078329722,10.87048167,38.48429223,38.4842926
270,0.078582222,10.87199667,41.01450886,41.01450925
271,0.078832222,10.87349667,40.88867228,40.88867267
272,0.079089445,10.87504,44.56060212,44.56060255
273,0.079471111,10.87733,47.47278559,47.47278605
274,0.079834167,10.87950833,43.64387346,43.64387388
275,0.080084167,10.88100833,37.86121557,37.86121594
276,0.080333889,10.88250667,37.69248193,37.6924823
277,0.080581389,10.88399167,38.91575244,38.91575282
278,0.080833611,10.885505,39.90321191,39.90321231
279,0.081218334,10.88781333,42.38170988,42.3817103
280,0.081582778,10.89,43.48952421,43.48952464
281,0.081831389,10.89149167,48.00621314,48.00621362
282,0.082075278,10.892955,49.08952343,49.08952392
283,0.082324722,10.89445167,52.44731363,52.44731416
284,0.082579445,10.89598,54.59022921,54.59022976
285,0.082964445,10.89829,55.82646799,55.82646856
286,0.083330556,10.9,58.97275744,58.97275804
287,0.08358,10.9,58.92365063,58.92365124
288,0.083835,10.9,59.12311198,59.12311259
289,0.084086389,10.9,63.47010358,63.47010424
290,0.084342222,10.9,63.48197343,63.48197409
291,0.084728889,10.9,63.04837354,63.0483742
292,0.085095,10.9,61.79116624,61.79116689
293,0.085345556,10.9,62.02313094,62.02313159
294,0.085598056,10.9,62.5185565,62.51855716
295,0.085848334,10.9,62.05934497,62.05934563
296,0.086102222,10.9,65.10577464,65.10577533
297,0.086475,10.9,68.57442914,68.57442987
298,0.086837778,10.9,65.77781863,65.77781934
299,0.087089167,10.9,67.21998197,67.21998269
300,0.087339167,10.9,66.38881044,66.38881116
301,0.087592778,10.9,68.01201985,68.01202059
302,0.087848611,10.9,67.36716436,67.36716509
303,0.088233334,10.9,67.05534992,67.05535065
304,0.088601389,10.9,64.93131859,64.9313193
305,0.088855278,10.9,66.14153562,66.14153635
306,0.089105556,10.9,65.71955926,65.71955999
307,0.0893625,10.9,64.19874349,64.1987442
308,0.089613889,10.9,66.83131492,66.83131566
309,0.089997778,10.9,68.92501964,68.92502041
310,0.090362778,10.9,68.22732858,68.22732934
311,0.090614167,10.9,67.55575155,67.55575231
312,0.090871945,10.9,64.30824475,64.30824548
313,0.091124167,10.9,61.80733201,61.80733271
314,0.091373611,10.9,63.25171086,63.25171158
315,0.091745556,10.9,64.75056612,64.75056686
316,0.092105556,10.9,67.83943577,67.83943655
317,0.092358889,10.9,66.65136511,66.65136588
318,0.092610556,10.9,68.32608004,68.32608083
319,0.092868611,10.9,67.88246398,67.88246476
320,0.0931225,10.9,69.0416776,69.0416784
321,0.093505278,10.9,70.24721011,70.24721093
322,0.093864445,10.9,70.79917142,70.79917225
323,0.094112778,10.9,72.97881847,72.97881933
324,0.094359722,10.9,74.37792933,74.37793021
325,0.094609167,10.9,76.08435804,76.08435894
326,0.094858611,10.9,78.28949224,78.28949317
327,0.095247222,10.9,80.0004957,80.00049665
328,0.095616111,10.9,79.7659968,79.76599775
329,0.095868056,10.9,81.78269339,81.78269437
330,0.096121389,10.9,81.55654271,81.55654369
331,0.096373889,10.9,82.58370116,82.58370216
332,0.096625556,10.9,80.49429553,80.4942965
333,0.097007778,10.9,78.63526675,78.63526771
334,0.097375,10.9,78.8629961,78.86299706
335,0.097625556,10.9,79.86861084,79.86861182
336,0.097875,10.9,78.90907698,78.90907795
337,0.098124445,10.9,84.61356803,84.61356907
338,0.098376389,10.9,82.58106214,82.58106316
339,0.098756667,10.9,80.25778343,80.25778443
340,0.099117778,10.9,82.24205843,82.24205945
341,0.099372778,10.9,83.83863699,83.83863804
342,0.099622778,10.9,83.46134655,83.46134759
343,0.099873334,10.9,85.2060595,85.20606057
344,0.100127222,10.89873333,85.43675225,85.43675333
345,0.100514445,10.89641,84.98842703,84.9884281
346,0.10088,10.89421667,77.99677717,77.99677816
347,0.101133334,10.89269667,76.2630832,76.26308417
348,0.101388334,10.89116667,75.26515794,75.2651589
349,0.101640278,10.889655,76.78219365,76.78219463
350,0.101892778,10.88814,74.24808894,74.24808989
351,0.102279167,10.88582167,72.42823143,72.42823236
352,0.102644445,10.88363,72.69249054,72.69249148
353,0.102896111,10.88212,76.11569555,76.11569654
354,0.103149167,10.88060167,77.47110557,77.47110658
355,0.103405,10.87906667,80.21619248,80.21619353
356,0.103658889,10.87754333,81.73285859,81.73285966
357,0.104031667,10.87530667,83.68224944,83.68225054
358,0.104391389,10.87314833,84.99580222,84.99580334
359,0.104641111,10.87165,81.6089638,81.60896488
360,0.104891389,10.87014833,84.30411677,84.30411789
361,0.105142778,10.86864,82.2514668,82.25146789
362,0.105395,10.86712667,86.37662413,86.37662528
363,0.105781389,10.86480833,90.4378632,90.43786441
364,0.106150834,10.86259167,90.87171754,90.87171876
365,0.106404722,10.86106833,91.14389147,91.1438927
366,0.106658611,10.859545,90.82310715,90.82310838
367,0.106909722,10.85803833,89.61720393,89.61720515
368,0.107164722,10.85650833,90.58931708,90.58931831
369,0.107545834,10.85422167,90.99012129,90.99012253
370,0.107909722,10.85203833,88.27618127,88.27618248
371,0.108161945,10.850525,90.98213938,90.98214063
372,0.108412222,10.84902333,90.53580102,90.53580227
373,0.108660834,10.84753167,93.47926239,93.47926368
374,0.108914445,10.84601,92.10630403,92.1063053
375,0.109300556,10.84369333,91.28092941,91.28093068
376,0.109669445,10.84148,91.84290077,91.84290205
377,0.1099225,10.83996167,94.52566646,94.52566778
378,0.110175834,10.83844167,94.6288063,94.62880762
379,0.110427778,10.83693,90.22485777,90.22485904
380,0.110678334,10.83542667,90.0297342,90.02973547
381,0.111066389,10.83309833,89.16693787,89.16693913
382,0.111433056,10.83089833,86.80365873,86.80365996
383,0.111685278,10.829385,87.67630557,87.67630682
384,0.111936389,10.82787833,87.69385888,87.69386013
385,0.112187778,10.82637,89.30383621,89.30383749
386,0.112438889,10.82486333,87.15429346,87.15429471
387,0.112816389,10.82259833,85.11694431,85.11694553
388,0.1131775,10.82043167,85.23198097,85.2319822
389,0.113428889,10.81892333,83.95320677,83.95320799
390,0.113679722,10.81741833,83.16356113,83.16356234
391,0.113927778,10.81593,78.55279612,78.55279726
392,0.11418,10.81441667,79.91698417,79.91698534
393,0.114567222,10.81209333,81.42013974,81.42014093
394,0.114937222,10.80987333,76.93501796,76.93501909
395,0.115189445,10.80836,71.95708001,71.95708107
396,0.115438889,10.80686333,67.51217564,67.51217664
397,0.115690278,10.805355,70.84926547,70.84926652
398,0.115943056,10.80383833,70.17425375,70.17425479
399,0.116327222,10.80153333,69.60438469,69.60438573
400,0.116692778,10.80066,67.52019975,67.52020076
401,0.116943889,10.80216667,66.40750468,66.40750567
402,0.117194445,10.80367,65.83008732,65.83008831
