Meas,Time,Temperature,Vmax
1,1.316851111,8.805533333,NA
2,1.317101667,8.81305,NA
3,1.317446389,8.823391667,NA
4,1.317783889,8.833516667,NA
5,1.318031111,8.840933333,NA
6,1.318279167,8.848375,NA
7,1.318526944,8.855808333,NA
8,1.318774444,8.863233333,NA
9,1.31911,8.8733,NA
10,1.319444167,8.883325,NA
11,1.319694167,8.890825,NA
12,1.3199425,8.898275,NA
13,1.320194722,8.905841667,NA
14,1.320443333,8.9133,NA
15,1.320776667,8.9233,NA
16,1.321104722,8.933141667,NA
17,1.321353056,8.940591667,NA
18,1.321602778,8.948083333,NA
19,1.321855833,8.955675,NA
20,1.322106111,8.963183333,NA
21,1.322444167,8.973325,NA
22,1.322775,8.98325,NA
23,1.323024444,8.990733333,NA
24,1.323272222,8.998166667,NA
25,1.323520556,9.005616667,252.8489696
26,1.323774444,9.013233333,252.938573
27,1.324117222,9.023516667,253.4582546
28,1.324451667,9.03355,258.267513
29,1.324703056,9.041091667,261.4166681
30,1.3249525,9.048575,267.9470451
31,1.325203889,9.056116667,269.8470266
32,1.325451667,9.06355,266.8951439
33,1.325795,9.07385,263.514503
34,1.3261275,9.083825,270.00709
35,1.326375278,9.091258333,273.9633316
36,1.326623056,9.098691667,281.6953337
37,1.326875,9.10625,280.9278033
38,1.327125556,9.113766667,283.7206794
39,1.327471944,9.124158333,285.2493836
40,1.327808889,9.134266667,287.3659422
41,1.328059167,9.141775,285.6528543
42,1.328308056,9.149241667,283.2807015
43,1.328555278,9.156658333,282.4524035
44,1.328805833,9.164175,282.591717
45,1.329151944,9.174558333,282.7686716
46,1.329489167,9.184675,280.7113295
47,1.329739444,9.192183333,280.2102183
48,1.329993611,9.199808333,283.0656675
49,1.330241111,9.207233333,284.4085973
50,1.330488889,9.214666667,282.3751865
51,1.330834167,9.225025,279.8274933
52,1.331169444,9.235083333,277.1687467
53,1.331415556,9.242466667,274.5360536
54,1.331663889,9.249916667,271.3918718
55,1.331917222,9.257516667,266.7398995
56,1.332171111,9.265133333,261.5492075
57,1.332510833,9.275325,256.5459148
58,1.3328425,9.285275,253.8483487
59,1.333090278,9.292708333,252.6580516
60,1.333336944,9.299913333,252.2583513
61,1.333586389,9.293926667,253.0693382
62,1.333837778,9.287893333,252.4927574
63,1.334173333,9.27984,251.8778012
64,1.334503056,9.271926667,249.40915
65,1.334750278,9.265993333,251.0909898
66,1.334998056,9.260046667,250.2410813
67,1.335247778,9.254053333,250.9761491
68,1.335494444,9.248133333,251.3857056
69,1.335832222,9.240026667,250.6758486
70,1.336161389,9.232126667,248.7461572
71,1.336408056,9.226206667,246.9688439
72,1.336656667,9.22024,246.6350066
73,1.336906111,9.214253333,248.8221222
74,1.337155278,9.208273333,245.5344929
75,1.337496389,9.200086667,241.5505693
76,1.3378325,9.19202,236.5562175
77,1.338084722,9.185966667,232.8090524
78,1.338337222,9.179906667,231.3626468
79,1.338589167,9.17386,228.2197623
80,1.338835833,9.16794,224.1441804
81,1.339173056,9.159846667,219.6985706
82,1.339506389,9.151846667,217.8612574
83,1.339752222,9.145946667,214.5235567
84,1.34,9.14,214.3554885
85,1.340250278,9.133993333,212.0756657
86,1.340499722,9.128006667,208.6732967
87,1.340835278,9.119953333,205.8035881
88,1.341165833,9.11202,204.1964662
89,1.341414167,9.10606,202.6057371
90,1.341663056,9.100086667,202.8715633
91,1.341910833,9.09414,201.9127306
92,1.342161111,9.088133333,206.309305
93,1.342503333,9.07992,210.7661515
94,1.342834722,9.071966667,213.793247
95,1.343081111,9.066053333,212.5613657
96,1.343331389,9.060046667,213.4782208
97,1.343580278,9.054073333,215.3843259
98,1.343826944,9.048153333,221.034223
99,1.344166667,9.04,226.6289387
100,1.344498333,9.03204,230.9162688
101,1.344746944,9.026073333,228.9984056
102,1.344996944,9.020073333,232.5586797
103,1.345246667,9.01408,239.0816975
104,1.345494167,9.00814,239.0876835
105,1.345833333,9,NA
106,1.3461625,8.9921,NA
107,1.346417222,8.985986667,NA
108,1.346669444,8.979933333,NA
109,1.346921667,8.97388,NA
110,1.347174722,8.967806667,NA
111,1.347516389,8.959606667,NA
112,1.347851667,8.95156,NA
113,1.348101389,8.945566667,NA
114,1.348355,8.93948,NA
115,1.3486075,8.93342,NA
116,1.3488575,8.92742,NA
117,1.349199722,8.919206667,NA
118,1.349536667,8.91112,NA
119,1.349783333,8.9052,NA
120,1.350031944,8.902108333,NA
121,1.350283333,8.9187,NA
122,1.350534444,8.935273333,NA
123,1.35088,8.95808,NA
124,1.351214444,8.980153333,NA
125,1.351464722,8.996671667,NA
126,1.351714167,9.013135,209.7954584
127,1.351963889,9.029616667,206.3900792
128,1.352214167,9.046135,206.0418313
129,1.352553889,9.068556667,204.027172
130,1.352891944,9.090868333,203.4205615
131,1.353141667,9.10735,200.6574177
132,1.353388056,9.123611667,198.4426568
133,1.353636667,9.14002,195.2040752
134,1.353885278,9.156428333,191.3997174
135,1.3542225,9.178685,187.7996145
136,1.354554167,9.200575,186.7895068
137,1.354800833,9.216855,186.8396328
138,1.35505,9.2333,185.4275238
139,1.355300833,9.249855,186.0052612
140,1.355551944,9.266428333,185.0557556
141,1.355890833,9.288795,184.1695926
142,1.356223611,9.310758333,182.2366675
143,1.356471389,9.327111667,178.2964902
144,1.356720833,9.343575,174.1216501
145,1.356971111,9.360093333,170.5206263
146,1.357220556,9.376556667,170.1852261
147,1.357560278,9.398978333,170.0643814
148,1.357896389,9.421161667,167.7874342
149,1.358145,9.43757,165.9759063
150,1.358393611,9.453978333,166.8071677
151,1.358643056,9.470441667,164.3702365
152,1.358891667,9.48685,156.7094607
153,1.359226667,9.50896,149.3379634
154,1.359558056,9.530831667,153.0494676
155,1.359808889,9.547386667,154.5558832
156,1.360054722,9.563611667,157.9376442
157,1.360306111,9.580203333,157.1165031
158,1.360555833,9.596685,158.9776638
159,1.360895278,9.619088333,160.2392941
160,1.36123,9.64118,164.3962245
161,1.36148,9.65768,167.0438533
162,1.361727778,9.674033333,168.6283239
163,1.361974444,9.690313333,172.4011063
164,1.362222222,9.706666667,175.8257541
165,1.362561389,9.729051667,179.1502311
166,1.362896389,9.751161667,180.9664309
167,1.3631425,9.767405,183.099017
168,1.363394444,9.784033333,184.5209486
169,1.363648333,9.80079,185.1208146
170,1.3639,9.8174,181.3204601
171,1.364246944,9.840298333,176.8447787
172,1.364585,9.86261,172.0373148
173,1.3648325,9.878945,169.5360772
174,1.365088611,9.895848333,166.0651505
175,1.365338056,9.912311667,163.3194015
176,1.365585833,9.928665,158.8812327
177,1.365930833,9.951435,154.7931246
178,1.366271944,9.973948333,152.1730305
179,1.366523333,9.99054,152.6084376
180,1.366774444,10.00064667,150.5207861
181,1.367022222,10.00213333,151.5264076
182,1.367271667,10.00363,154.7746829
183,1.367612222,10.00567333,157.2452762
184,1.367947778,10.00768667,154.9235254
185,1.368197778,10.00918667,153.8100695
186,1.368451111,10.01070667,150.0389459
187,1.3687025,10.012215,148.5028517
188,1.368950278,10.01370167,148.1410985
189,1.369287222,10.01572333,148.0146351
190,1.369616111,10.01769667,146.2414829
191,1.369863611,10.01918167,146.2441633
192,1.370113333,10.02068,148.761821
193,1.370363611,10.02218167,152.7748104
194,1.370610556,10.02366333,153.2847467
195,1.370945833,10.025675,153.0836715
196,1.371275556,10.02765333,153.3524919
197,1.371525,10.02915,153.0188661
198,1.371776389,10.03065833,151.3616301
199,1.372025833,10.032155,150.8307901
200,1.372274167,10.033645,152.3543666
201,1.372617222,10.03570333,153.970581
202,1.372950556,10.03770333,154.9320913
203,1.373201111,10.03920667,157.1564122
204,1.373448333,10.04069,157.2346721
205,1.373695278,10.04217167,161.4425192
206,1.373951111,10.04370667,164.7195627
207,1.374290278,10.04574167,168.5046314
208,1.374624444,10.04774667,170.7040494
209,1.374873889,10.04924333,173.7536854
210,1.375126944,10.05076167,176.4129339
211,1.375375556,10.05225333,177.2461837
212,1.375625833,10.053755,183.9851486
213,1.375969444,10.05581667,190.8234653
214,1.376304722,10.05782833,196.5930696
215,1.376550556,10.05930333,200.0898474
216,1.376799167,10.060795,204.7112132
217,1.377049444,10.06229667,205.4264
218,1.377298889,10.06379333,208.6899037
219,1.377644444,10.06586667,211.696931
220,1.377980556,10.06788333,216.3724244
221,1.378229444,10.06937667,218.9679717
222,1.378478333,10.07087,227.2550334
223,1.378729722,10.07237833,234.9638455
224,1.378982222,10.07389333,237.5348335
225,1.379331389,10.07598833,239.3490861
226,1.379671111,10.07802667,243.1635561
227,1.3799175,10.079505,245.1767557
228,1.380166389,10.08099833,247.6390358
229,1.380413056,10.08247833,246.7904694
230,1.380661389,10.08396833,247.5137281
231,1.380999444,10.08599667,247.8336513
232,1.381329722,10.08797833,252.1183584
233,1.381578056,10.08946833,250.5303106
234,1.381828333,10.09097,247.7913874
235,1.382081389,10.09248833,249.250742
236,1.382333611,10.09400167,246.8296529
237,1.382668056,10.09600833,244.3086316
238,1.382996111,10.09797667,243.6465365
239,1.383243056,10.09945833,238.8340858
240,1.383493333,10.09712,232.9969777
241,1.3837425,10.092635,228.1261673
242,1.383993889,10.08811,228.045101
243,1.3843375,10.081925,227.7120373
244,1.384671667,10.07591,230.6450366
245,1.384919722,10.071445,225.3073134
246,1.3851675,10.066985,222.6434794
247,1.385415556,10.06252,220.210173
248,1.385665278,10.058025,216.7353826
249,1.3860025,10.051955,212.3712836
250,1.3863325,10.046015,213.9129843
251,1.386580556,10.04155,210.9016377
252,1.386831111,10.03704,211.0924193
253,1.387080556,10.03255,208.082047
254,1.387326389,10.028125,204.6643711
255,1.38767,10.02194,202.0580109
256,1.388005,10.01591,202.9849312
257,1.388254722,10.011415,205.0494023
258,1.388506944,10.006875,209.2805773
259,1.388754722,10.002415,213.7780559
260,1.389003889,9.99793,212.4280296
261,1.389342222,9.99184,210.1408664
262,1.389675556,9.98584,209.1885854
263,1.389924167,9.981365,204.897789
264,1.390170833,9.976925,200.3393241
265,1.390420278,9.972435,199.1166059
266,1.390668611,9.967965,199.991723
267,1.391004444,9.96192,200.7229478
268,1.391334722,9.955975,197.3700049
269,1.391581389,9.951535,196.9188032
270,1.391829444,9.94707,194.5211066
271,1.392077778,9.9426,192.3016107
272,1.392325556,9.93814,187.1601645
273,1.392666944,9.931995,182.2322603
274,1.393001944,9.925965,182.3730903
275,1.393249167,9.921515,180.8366793
276,1.393498056,9.917035,173.4996741
277,1.393745556,9.91258,174.6081727
278,1.393994167,9.908105,174.3839891
279,1.394333889,9.90199,173.8609311
280,1.394668056,9.895975,173.4093782
281,1.394916667,9.8915,176.1645477
282,1.395170556,9.88693,176.819769
283,1.395421944,9.882405,176.6672305
284,1.395670833,9.877925,179.8348765
285,1.396005,9.87191,182.8304681
286,1.396336111,9.86595,183.930795
287,1.396586389,9.861445,187.2845934
288,1.396833889,9.85699,190.2676448
289,1.397086944,9.852435,189.3754553
290,1.397338333,9.84791,186.0126258
291,1.397677222,9.84181,181.8169474
292,1.398013333,9.83576,177.183997
293,1.39826,9.83132,176.284878
294,1.398505833,9.826895,174.4051199
295,1.398752778,9.82245,174.8740576
296,1.399004722,9.817915,173.8339427
297,1.399341944,9.811845,172.7589183
298,1.399674722,9.805855,167.3792632
299,1.399920556,9.80143,165.6899224
300,1.400167222,9.79398,164.5151552
301,1.400413889,9.7851,162.0874788
302,1.400663333,9.77612,164.8326283
303,1.401005278,9.76381,167.7269644
304,1.401340556,9.75174,166.1631621
305,1.401591667,9.7427,168.00645
306,1.401842222,9.73368,165.3523258
307,1.402089722,9.72477,162.9000252
308,1.402339444,9.71578,162.2835513
309,1.402678056,9.70359,162.456726
310,1.403008889,9.69168,159.8180608
311,1.403254444,9.68284,160.1787191
312,1.403499444,9.67402,159.447248
313,1.403749167,9.66503,159.879099
314,1.404001111,9.65596,157.632211
315,1.404339444,9.64378,154.7000099
316,1.404673889,9.63174,156.9420958
317,1.404924167,9.62273,158.0070015
318,1.405172778,9.61378,152.1666928
319,1.405422778,9.60478,153.6394529
320,1.405673333,9.59576,155.1107074
321,1.406014167,9.58349,156.1319889
322,1.406345833,9.57155,155.1678816
323,1.406594722,9.56259,157.2026177
324,1.4068475,9.55349,154.9906804
325,1.407098056,9.54447,157.6892481
326,1.4073475,9.53549,160.1983791
327,1.40769,9.52316,163.3044169
328,1.408026944,9.51103,166.3924325
329,1.408279167,9.50195,170.8421997
330,1.408531667,9.49286,174.8392457
331,1.408783889,9.48378,174.1139399
332,1.409036667,9.47468,177.8626145
333,1.409384167,9.46217,181.5451902
334,1.409722222,9.45,185.7849612
335,1.4099725,9.44099,190.9010687
336,1.410221111,9.43204,192.5232381
337,1.410469722,9.42309,193.1234489
338,1.4107175,9.41417,195.8785064
339,1.411055556,9.402,198.1128653
340,1.411386389,9.39009,197.9083655
341,1.411634722,9.38115,200.7560481
342,1.4118825,9.37223,205.0141909
343,1.412131944,9.36325,207.5142715
344,1.412381111,9.35428,206.683668
345,1.412721111,9.34204,205.423038
346,1.413051111,9.33016,204.9894223
347,1.413299444,9.32122,206.1645082
348,1.413548333,9.31226,205.2539106
349,1.413796667,9.30332,203.6572078
350,1.414046667,9.29432,205.7253228
351,1.414390556,9.28194,207.5187028
352,1.414725,9.2699,208.6137014
353,1.4149725,9.26099,205.2989059
354,1.41522,9.25208,202.8162197
355,1.415468889,9.24312,205.1510158
356,1.415717222,9.23418,202.2820458
357,1.416059167,9.22187,199.3518405
358,1.416393333,9.20984,197.3776035
359,1.416641111,9.20092,195.1695262
360,1.416890556,9.197313333,194.7340371
361,1.417141944,9.194296667,194.463981
362,1.417392222,9.191293333,196.3882274
363,1.417727778,9.187266667,197.7993578
364,1.418054444,9.183346667,200.1496041
365,1.418300556,9.180393333,199.3537552
366,1.418550833,9.17739,199.0624485
367,1.418798333,9.17442,196.7712014
368,1.419047222,9.171433333,194.3744696
369,1.419387778,9.167346667,191.5736829
370,1.419721944,9.163336667,192.5143848
371,1.419971944,9.160336667,192.1587459
372,1.420219444,9.157366667,193.2196965
373,1.420465278,9.154416667,194.0191327
374,1.420713333,9.15144,195.9120478
375,1.42106,9.14728,198.45547
376,1.421400833,9.14319,196.7761173
377,1.421654722,9.140143333,198.5591169
378,1.421907222,9.137113333,202.8455922
379,1.422160278,9.134076667,207.0729149
380,1.422409444,9.131086667,205.6327476
381,1.422756667,9.12692,203.0546461
382,1.4230975,9.12283,205.1049243
383,1.423348056,9.119823333,200.753643
384,1.423598611,9.116816667,199.09358
385,1.423848611,9.113816667,197.9554967
386,1.424098889,9.110813333,196.2138073
387,1.424443611,9.106676667,194.1840915
388,1.4247825,9.10261,192.593586
389,1.425027222,9.099673333,190.4660357
390,1.425279444,9.096646667,187.5160206
391,1.425530278,9.093636667,186.5323389
392,1.425778611,9.090656667,184.5603069
393,1.4261175,9.08659,183.1996152
394,1.426450833,9.08259,183.6385628
395,1.4267025,9.07957,182.8054912
396,1.426951944,9.076576667,177.5063317
397,1.427200278,9.073596667,179.1514373
398,1.427449722,9.070603333,178.0664913
399,1.427786944,9.066556667,176.2185418
400,1.428116667,9.0626,174.2984421
401,1.428361667,9.05966,175.1188642
402,1.428613889,9.056633333,171.5712354
403,1.428863056,9.053643333,171.0993402
404,1.429111944,9.050656667,171.4221377
405,1.429448889,9.046613333,171.5667476
406,1.429778889,9.042653333,169.5602018
407,1.430026389,9.039683333,169.56334
408,1.430275,9.0367,172.3134999
409,1.430522778,9.033726667,173.252688
410,1.430771389,9.030743333,174.9081161
411,1.431110833,9.02667,175.964574
412,1.431441944,9.022696667,175.237821
413,1.431692222,9.019693333,175.7005109
414,1.4319425,9.01669,175.9619405
415,1.432189444,9.013726667,179.7389074
416,1.432435833,9.01077,186.2303648
417,1.432775278,9.006696667,192.8720628
418,1.433111944,9.002656667,192.3285005
419,1.433361389,8.999831667,NA
420,1.433609444,8.998343333,NA
421,1.433857778,8.996853333,NA
422,1.434108056,8.995351667,NA
423,1.434447778,8.993313333,NA
424,1.434781667,8.99131,NA
425,1.435030278,8.989818333,NA
426,1.435278611,8.988328333,NA
427,1.435527222,8.986836667,NA
428,1.435773056,8.985361667,NA
429,1.436111111,8.983333333,NA
430,1.436445556,8.981326667,NA
431,1.436693056,8.979841667,NA
432,1.436943611,8.978338333,NA
433,1.437194722,8.976831667,NA
434,1.437446389,8.975321667,NA
435,1.437785278,8.973288333,NA
436,1.438113056,8.971321667,NA
437,1.4383625,8.969825,NA
438,1.438611111,8.968333333,NA
439,1.438858889,8.966846667,NA
440,1.4391075,8.965355,NA
441,1.439446111,8.963323333,NA
442,1.439776389,8.961341667,NA
443,1.440021944,8.959868333,NA
444,1.440267778,8.958393333,NA
445,1.440521667,8.95687,NA
446,1.440774722,8.955351667,NA
447,1.441111111,8.953333333,NA
448,1.441440833,8.951355,NA
449,1.441689722,8.949861667,NA
450,1.441939722,8.948361667,NA
451,1.442184722,8.946891667,NA
452,1.442433333,8.9454,NA
453,1.442781389,8.943311667,NA
454,1.443118611,8.941288333,NA
455,1.443363333,8.93982,NA
456,1.443609167,8.938345,NA
457,1.443858889,8.936846667,NA
458,1.444106389,8.935361667,NA
459,1.444444167,8.933335,NA
460,1.444778056,8.931331667,NA
461,1.445023056,8.929861667,NA
462,1.445273889,8.928356667,NA
463,1.4455225,8.926865,NA
464,1.44577,8.92538,NA
465,1.446108333,8.92335,NA
466,1.4464425,8.921345,NA
467,1.446688611,8.919868333,NA
468,1.446936944,8.918378333,NA
469,1.447184722,8.916891667,NA
470,1.447436111,8.915383333,NA
471,1.447775833,8.913345,NA
472,1.448109444,8.911343333,NA
473,1.44836,8.90984,NA
474,1.4486075,8.908355,NA
475,1.448858056,8.906851667,NA
476,1.449108056,8.905351667,NA
477,1.449444722,8.903331667,NA
478,1.449776111,8.901343333,NA
479,1.450029167,8.9,NA
480,1.450280556,8.9,NA
481,1.450528056,8.9,NA
482,1.450779444,8.9,NA
483,1.451119444,8.9,NA
484,1.451451944,8.9,NA
485,1.451699722,8.9,NA
486,1.451947222,8.9,NA
487,1.452195,8.9,NA
488,1.452447222,8.9,NA
489,1.452783889,8.9,NA
490,1.453115,8.9,NA
491,1.453361389,8.9,NA
492,1.453611111,8.9,NA
493,1.453860556,8.9,NA
494,1.454110278,8.9,NA
495,1.454448889,8.9,NA
496,1.4547825,8.9,NA
497,1.455032222,8.9,NA
498,1.455280556,8.9,NA
499,1.455531667,8.9,NA
500,1.455781944,8.9,NA
501,1.456120278,8.9,NA
502,1.456451944,8.9,NA
503,1.456698889,8.9,NA
504,1.456946389,8.9,NA
505,1.4571975,8.9,NA
506,1.457447778,8.9,NA
507,1.457783056,8.9,NA
508,1.458114167,8.9,NA
509,1.458364444,8.9,NA
510,1.458613056,8.9,NA
511,1.458860556,8.9,NA
512,1.459108333,8.9,NA
513,1.459444444,8.9,NA
514,1.459775,8.9,NA
515,1.460021111,8.9,NA
516,1.460270556,8.9,NA
517,1.460518889,8.9,NA
518,1.46077,8.9,NA
519,1.461111111,8.9,NA
520,1.461443889,8.9,NA
521,1.461693056,8.9,NA
522,1.461941389,8.9,NA
523,1.462191944,8.9,NA
524,1.462438889,8.9,NA
525,1.462776944,8.9,NA
526,1.463111944,8.9,NA
527,1.463358056,8.9,NA
528,1.463608333,8.9,NA
529,1.463860556,8.9,NA
530,1.464115278,8.9,NA
531,1.464455556,8.9,NA
532,1.464790833,8.9,NA
533,1.465041389,8.9,NA
534,1.4652925,8.9,NA
535,1.465543611,8.9,NA
536,1.465799444,8.9,NA
537,1.466145833,8.9,NA
538,1.466485833,8.9,NA
539,1.466735278,8.902881667,NA
540,1.466981667,8.91323,NA
541,1.467230278,8.923671667,NA
542,1.467479722,8.934148333,NA
543,1.467829167,8.948825,NA
544,1.468168889,8.963093333,NA
545,1.468415556,8.973453333,NA
546,1.468665833,8.983965,NA
547,1.468914444,8.994406667,NA
548,1.469163889,9.004883333,141.3936199
549,1.469504722,9.019198333,140.2548247
550,1.469837222,9.033163333,142.7608651
551,1.4700875,9.043675,146.1194939
552,1.470338889,9.054233333,147.8390093
553,1.470585833,9.064605,146.8642075
554,1.470836944,9.075151667,149.0610407
555,1.4711725,9.089245,150.996553
556,1.471503889,9.103163333,153.2230785
557,1.471753611,9.113651667,150.8509708
558,1.472004722,9.124198333,151.3963013
559,1.472255,9.13471,155.4469638
560,1.472505278,9.145221667,156.4736494
561,1.472843611,9.159431667,157.6979379
562,1.473175,9.17335,162.6890846
563,1.473422778,9.183756667,163.454286
564,1.473675,9.19435,167.4692685
565,1.473926111,9.204896667,172.4751031
566,1.474176111,9.215396667,176.0681627
567,1.47452,9.22984,179.1927167
568,1.474856389,9.243968333,179.3085368
