Meas,Time,Temperature,Vmax.og,Vmax.inst
1,0,9.405193333,1475.957536,1475.957536
2,0.000250278,9.4112,1476.975892,1476.975892
3,0.0005,9.417193333,1477.517556,1477.517556
4,0.000750278,9.4232,1481.615666,1481.615666
5,0.001000556,9.429206667,1481.119203,1481.119203
6,0.001330556,9.437126667,1478.244414,1478.244414
7,0.001658334,9.444993333,1478.479187,1478.479187
8,0.001907778,9.45098,1477.39984,1477.39984
9,0.002152778,9.45686,1472.575099,1472.575099
10,0.002402222,9.462846667,1468.396747,1468.396747
11,0.002653611,9.46888,1469.107774,1469.107774
12,0.002988889,9.476926667,1467.994072,1467.994072
13,0.003316945,9.4848,1469.871745,1469.871745
14,0.003566389,9.490786667,1471.683506,1471.683506
15,0.003817778,9.49682,1472.916946,1472.916946
16,0.004066389,9.502786667,1472.928302,1472.928302
17,0.004313889,9.508726667,1470.230538,1470.230538
18,0.004656667,9.516953333,1466.755297,1466.755297
19,0.004988889,9.524926667,1461.881139,1461.88114
20,0.005236667,9.530873333,1463.186256,1463.186257
21,0.005491389,9.536986667,1463.742643,1463.742644
22,0.005743056,9.543026667,1464.923692,1464.923693
23,0.005994167,9.549053333,1464.962871,1464.962872
24,0.006326667,9.557033333,1462.706302,1462.706303
25,0.006653611,9.56488,1464.539985,1464.539986
26,0.006905278,9.57092,1462.148299,1462.1483
27,0.007153611,9.57688,1462.251034,1462.251035
28,0.007403334,9.582873333,1461.897311,1461.897312
29,0.007649722,9.588786667,1457.670459,1457.67046
30,0.007984167,9.596813333,1452.183474,1452.183475
31,0.008313056,9.604706667,1451.341117,1451.341118
32,0.008561667,9.610673333,1448.353894,1448.353895
33,0.008809445,9.61662,1441.140451,1441.140452
34,0.009057778,9.62258,1436.852978,1436.852979
35,0.009309445,9.62862,1434.286644,1434.286645
36,0.009646389,9.636706667,1430.666814,1430.666815
37,0.009974445,9.64458,1427.487332,1427.487333
38,0.010221945,9.65052,1422.375255,1422.375256
39,0.010468889,9.656446667,1419.613936,1419.613937
40,0.010718056,9.662426667,1414.892666,1414.892667
41,0.010966945,9.6684,1413.903586,1413.903587
42,0.011321389,9.676906667,1410.770047,1410.770048
43,0.011663056,9.685106667,1405.191163,1405.191164
44,0.011910556,9.691046667,1401.943543,1401.943544
45,0.012159167,9.697013333,1393.035823,1393.035824
46,0.012411111,9.70306,1391.115775,1391.115776
47,0.012661389,9.709066667,1383.363347,1383.363348
48,0.012996111,9.7171,1373.741355,1373.741356
49,0.013327778,9.72506,1372.337899,1372.3379
50,0.013574445,9.73098,1372.973103,1372.973104
51,0.013826667,9.737033333,1372.918008,1372.918009
52,0.014077222,9.743046667,1371.804751,1371.804752
53,0.014327222,9.749046667,1372.375344,1372.375345
54,0.014664722,9.757146667,1372.218956,1372.218958
55,0.014993611,9.76504,1374.179123,1374.179125
56,0.015241111,9.77098,1373.346997,1373.346999
57,0.0154925,9.777013333,1371.852087,1371.852089
58,0.015741945,9.783,1369.951927,1369.951929
59,0.015989445,9.78894,1371.852387,1371.852389
60,0.016326667,9.797033333,1372.162084,1372.162086
61,0.016655556,9.796305,1370.770654,1370.770656
62,0.016904445,9.791825,1372.944918,1372.94492
63,0.017159167,9.78724,1374.174648,1374.17465
64,0.017406945,9.78278,1373.892487,1373.892489
65,0.017653611,9.77834,1372.277122,1372.277124
66,0.018000834,9.77209,1370.098539,1370.098541
67,0.018342222,9.765945,1371.547347,1371.547349
68,0.018591111,9.761465,1376.093242,1376.093244
69,0.018842222,9.756945,1377.582759,1377.582761
70,0.019093334,9.752425,1376.185469,1376.185471
71,0.019341945,9.74795,1379.244811,1379.244813
72,0.019684445,9.741785,1380.448859,1380.448861
73,0.020019167,9.73576,1375.421118,1375.42112
74,0.020265834,9.73132,1375.76178,1375.761782
75,0.020514167,9.72685,1378.565629,1378.565631
76,0.020761945,9.72239,1379.199599,1379.199601
77,0.021010556,9.717915,1382.412103,1382.412105
78,0.021355,9.711715,1384.141104,1384.141106
79,0.021692222,9.705645,1383.203995,1383.203997
80,0.021943611,9.70112,1380.848203,1380.848205
81,0.022191945,9.69665,1378.418076,1378.418078
82,0.022440834,9.69217,1375.715197,1375.715199
83,0.022689722,9.68769,1374.693195,1374.693197
84,0.023018334,9.681775,1372.166116,1372.166118
85,0.023344167,9.67591,1369.872812,1369.872814
86,0.023593056,9.67143,1368.985031,1368.985034
87,0.023844167,9.66691,1368.138021,1368.138024
88,0.024095278,9.66239,1369.622385,1369.622388
89,0.024343889,9.657915,1368.184498,1368.184501
90,0.024678334,9.651895,1365.256075,1365.256078
91,0.02501,9.645925,1366.460014,1366.460017
92,0.025261389,9.6414,1363.667693,1363.667696
93,0.025511945,9.63689,1358.258035,1358.258038
94,0.025761945,9.63239,1354.629149,1354.629152
95,0.026008889,9.627945,1354.065547,1354.06555
96,0.026341389,9.62196,1352.896566,1352.896569
97,0.026666389,9.61611,1351.86609,1351.866093
98,0.026911389,9.6117,1346.95279,1346.952793
99,0.027158334,9.607255,1345.366843,1345.366846
100,0.027405834,9.6028,1347.615398,1347.615401
101,0.027654445,9.598325,1348.064618,1348.064621
102,0.027999167,9.59212,1348.074515,1348.074518
103,0.028334445,9.586085,1346.560117,1346.56012
104,0.028582778,9.581615,1346.905264,1346.905267
105,0.028834167,9.57709,1351.222187,1351.22219
106,0.029086111,9.572555,1356.479061,1356.479064
107,0.029336667,9.568045,1359.935989,1359.935992
108,0.029673611,9.56198,1361.158942,1361.158945
109,0.030006389,9.55599,1365.859101,1365.859104
110,0.030257778,9.551465,1367.985091,1367.985094
111,0.030509722,9.54693,1369.262173,1369.262176
112,0.030760278,9.54242,1366.252402,1366.252405
113,0.031011389,9.5379,1364.238289,1364.238292
114,0.031354167,9.53173,1360.699917,1360.69992
115,0.031685834,9.52576,1360.860642,1360.860645
116,0.031931389,9.52134,1360.023164,1360.023167
117,0.03218,9.516865,1360.628898,1360.628901
118,0.032428611,9.51239,1361.041373,1361.041376
119,0.032675278,9.50795,1361.071095,1361.071098
120,0.033009167,9.50194,1360.522854,1360.522857
121,0.033335,9.517008333,1354.657533,1354.657537
122,0.033580278,9.53614,1356.300742,1356.300746
123,0.033827778,9.555445,1351.604243,1351.604247
124,0.034076389,9.574836667,1351.99071,1351.990714
125,0.034326389,9.594336667,1352.493719,1352.493723
126,0.034668056,9.620986667,1351.021015,1351.021019
127,0.034999167,9.646813333,1353.694136,1353.69414
128,0.035247778,9.666205,1354.119615,1354.119619
129,0.035496945,9.68564,1350.783431,1350.783435
130,0.035746389,9.705096667,1346.384275,1346.384279
131,0.035995834,9.724553333,1345.232987,1345.232991
132,0.036322222,9.750011667,1342.501808,1342.501812
133,0.036646667,9.775318333,1339.937115,1339.937119
134,0.036893889,9.794601667,1340.907726,1340.90773
135,0.037142778,9.814015,1343.597175,1343.597179
136,0.037393056,9.833536667,1341.953965,1341.953969
137,0.037642222,9.852971667,1337.133892,1337.133896
138,0.037975,9.878928333,1331.738246,1331.73825
139,0.038302222,9.904451667,1326.02605,1326.026054
140,0.038549167,9.923713333,1328.931588,1328.931592
141,0.038800278,9.9433,1326.013132,1326.013136
142,0.039051389,9.962886667,1321.772438,1321.772442
143,0.039300834,9.982343333,1317.535507,1317.535511
144,0.03964,10.00879833,1311.725458,1311.725462
145,0.039975278,10.03495,1309.221716,1309.22172
146,0.040227222,10.05460167,1306.95634,1306.956344
147,0.040476667,10.07405833,1305.599322,1305.599326
148,0.040727222,10.09360167,1299.54194,1299.541944
149,0.040979722,10.11329667,1293.312544,1293.312548
150,0.041326945,10.14038,1286.302575,1286.302579
151,0.041664722,10.16672667,1283.009008,1283.009012
152,0.041916111,10.186335,1278.589629,1278.589633
153,0.042164722,10.20572667,1272.929891,1272.929895
154,0.042415,10.22524833,1270.65467,1270.654674
155,0.042663334,10.24461833,1266.901213,1266.901217
156,0.042999722,10.27085667,1261.743674,1261.743678
157,0.043331389,10.29672667,1260.22344,1260.223444
158,0.043579167,10.31605333,1253.08855,1253.088554
159,0.043825556,10.33527167,1249.780091,1249.780095
160,0.044073334,10.35459833,1244.454765,1244.45477
161,0.044322222,10.37401167,1245.349555,1245.34956
162,0.044665278,10.40077,1245.599892,1245.599897
163,0.045000278,10.4269,1241.764042,1241.764047
164,0.045249445,10.446335,1238.545332,1238.545337
165,0.045496945,10.46564,1235.167154,1235.167159
166,0.045749167,10.48531333,1235.05148,1235.051485
167,0.046000556,10.50492167,1235.067398,1235.067403
168,0.046326667,10.53035833,1232.315999,1232.316004
169,0.046648334,10.55544833,1229.339867,1229.339872
170,0.046899722,10.57505667,1226.43723,1226.437235
171,0.047149167,10.59451333,1221.937838,1221.937843
172,0.047400278,10.6141,1218.444533,1218.444538
173,0.047653611,10.63386,1212.566107,1212.566112
174,0.048000556,10.66092167,1205.793442,1205.793447
175,0.048338889,10.68731167,1206.568504,1206.568509
176,0.048589167,10.70683333,1202.709529,1202.709534
177,0.048841389,10.72650667,1196.168764,1196.168769
178,0.049093334,10.74615833,1190.408369,1190.408374
179,0.049346667,10.76591833,1187.340005,1187.34001
180,0.049695,10.79308833,1183.633236,1183.633241
181,0.050032222,10.79105,1180.130766,1180.130771
182,0.050277778,10.78221,1179.144827,1179.144832
183,0.050524167,10.77334,1180.239017,1180.239022
184,0.050771945,10.76442,1174.840027,1174.840032
185,0.051021667,10.75543,1171.678914,1171.678919
186,0.051374445,10.74273,1167.721917,1167.721922
187,0.051715,10.73047,1168.842836,1168.842842
188,0.051963611,10.72152,1168.801253,1168.801259
189,0.052215,10.71247,1168.293396,1168.293402
190,0.052464167,10.7035,1170.580301,1170.580307
191,0.052712222,10.69457,1172.996638,1172.996644
192,0.053058334,10.68211,1174.527196,1174.527202
193,0.053397222,10.66991,1174.91574,1174.915746
194,0.053646667,10.66093,1175.459886,1175.459892
195,0.053898889,10.65185,1173.601581,1173.601587
196,0.054150278,10.6428,1170.502764,1170.50277
197,0.054398889,10.63385,1171.421001,1171.421007
198,0.054743056,10.62146,1171.341272,1171.341278
199,0.055074722,10.60952,1171.022479,1171.022485
200,0.0553225,10.6006,1168.568616,1168.568622
201,0.055570278,10.59168,1167.974538,1167.974544
202,0.055815,10.58287,1164.507773,1164.507779
203,0.05606,10.57405,1163.130351,1163.130357
204,0.0564025,10.56172,1159.549328,1159.549334
205,0.056742222,10.54949,1157.168264,1157.16827
206,0.056991667,10.54051,1153.491055,1153.491061
207,0.057239445,10.53159,1149.241548,1149.241554
208,0.057489722,10.52258,1145.585048,1145.585054
209,0.057739167,10.5136,1139.518135,1139.518141
210,0.058063611,10.50192,1131.498584,1131.49859
211,0.058381945,10.49046,1127.594389,1127.594395
212,0.058633889,10.48139,1122.005448,1122.005454
213,0.058885278,10.47234,1115.551165,1115.551171
214,0.059134722,10.46336,1107.978021,1107.978027
215,0.059381389,10.45448,1106.428908,1106.428914
216,0.059723056,10.44218,1105.938551,1105.938557
217,0.060055,10.43023,1105.67275,1105.672756
218,0.060301389,10.42136,1104.401872,1104.401878
219,0.060551945,10.41234,1103.345664,1103.34567
220,0.060801945,10.40334,1106.765543,1106.76555
221,0.061054167,10.39426,1106.719482,1106.719489
222,0.061400556,10.38179,1105.157967,1105.157974
223,0.061739445,10.36959,1107.483534,1107.483541
224,0.061989167,10.3606,1106.785911,1106.785918
225,0.062235,10.35175,1107.167557,1107.167564
226,0.062484445,10.34277,1111.335392,1111.335399
227,0.062736667,10.33369,1114.748424,1114.748431
228,0.063091111,10.32093,1117.26525,1117.265257
229,0.063431945,10.30866,1119.951012,1119.951019
230,0.063678611,10.29978,1115.994277,1115.994284
231,0.063925278,10.2909,1115.238985,1115.238992
232,0.064173056,10.28198,1111.600269,1111.600276
233,0.064424167,10.27294,1113.429594,1113.429601
234,0.064756667,10.26097,1113.712191,1113.712198
235,0.065082222,10.24925,1115.048467,1115.048474
236,0.065334167,10.24018,1115.108833,1115.10884
237,0.065582778,10.23123,1115.762992,1115.762999
238,0.065833334,10.22221,1114.81709,1114.817097
239,0.066081945,10.21326,1114.38385,1114.383857
240,0.066425278,10.2009,1113.165781,1113.165788
241,0.066759167,10.2,1111.036775,1111.036782
242,0.067011945,10.2,1112.684258,1112.684265
243,0.067267778,10.2,1108.054221,1108.054228
244,0.067518334,10.2,1107.091748,1107.091755
245,0.067767778,10.2,1108.969498,1108.969505
246,0.068124167,10.2,1110.117933,1110.117941
247,0.068469167,10.2,1114.877441,1114.877449
248,0.068718611,10.2,1119.838603,1119.838611
249,0.068970278,10.2,1122.022092,1122.0221
250,0.069220556,10.2,1122.658901,1122.658909
251,0.06947,10.2,1119.091452,1119.09146
252,0.069809722,10.2,1113.973428,1113.973436
253,0.070139722,10.2,1114.712812,1114.71282
254,0.070390278,10.2,1113.489194,1113.489202
255,0.070639445,10.2,1116.796693,1116.796701
256,0.07089,10.2,1113.637341,1113.637349
257,0.071145,10.2,1111.197822,1111.19783
258,0.071481945,10.2,1107.216944,1107.216952
259,0.071813611,10.2,1107.541962,1107.54197
260,0.072062222,10.2,1107.010051,1107.010059
261,0.072310556,10.2,1103.219431,1103.219439
262,0.0725575,10.2,1098.534974,1098.534982
263,0.072806945,10.2,1092.943016,1092.943024
264,0.073148611,10.2,1087.290946,1087.290954
265,0.073485,10.2,1088.88292,1088.882928
266,0.073729167,10.2,1088.081359,1088.081367
267,0.073975556,10.2,1084.864358,1084.864366
268,0.074225,10.2,1080.200336,1080.200344
269,0.074470278,10.2,1075.406135,1075.406143
270,0.074806945,10.2,1069.013736,1069.013744
271,0.075135278,10.2,1064.07948,1064.079488
272,0.075388334,10.2,1061.707171,1061.707179
273,0.075637778,10.2,1060.661523,1060.661531
274,0.07589,10.2,1060.121985,1060.121993
275,0.076141111,10.2,1055.103531,1055.103539
276,0.076474722,10.2,1049.05002,1049.050028
277,0.076799167,10.2,1049.294764,1049.294772
278,0.077045,10.2,1044.299474,1044.299482
279,0.077293334,10.2,1044.32462,1044.324628
280,0.077544445,10.2,1049.180963,1049.180971
281,0.077793889,10.2,1050.356001,1050.356009
282,0.078142222,10.2,1051.42178,1051.421788
283,0.078484167,10.2,1052.559193,1052.559201
284,0.078731667,10.2,1053.194114,1053.194122
285,0.078979445,10.2,1055.924786,1055.924794
286,0.079225834,10.2,1056.298001,1056.298009
287,0.079474445,10.2,1061.697852,1061.697861
288,0.0798225,10.2,1065.445026,1065.445035
289,0.08016,10.2,1064.983141,1064.98315
290,0.08041,10.2,1063.813869,1063.813878
291,0.080659722,10.2,1062.965665,1062.965674
292,0.0809075,10.2,1064.630438,1064.630447
293,0.081156667,10.2,1065.364924,1065.364933
294,0.081490278,10.2,1065.429146,1065.429155
295,0.081820278,10.2,1070.453769,1070.453778
296,0.082068611,10.2,1073.961249,1073.961258
297,0.082317222,10.2,1072.288276,1072.288285
298,0.082565834,10.2,1069.643364,1069.643373
299,0.082815834,10.2,1072.478349,1072.478358
300,0.083163611,10.19972,1073.431182,1073.431191
301,0.083499445,10.197705,1069.987414,1069.987423
302,0.083745278,10.19623,1068.123893,1068.123902
303,0.083991111,10.194755,1068.708173,1068.708182
304,0.084238056,10.19327333,1061.437152,1061.437161
305,0.0844875,10.19177667,1061.974994,1061.975003
306,0.084827222,10.18973833,1062.583416,1062.583425
307,0.085158056,10.18775333,1061.421644,1061.421653
308,0.085407778,10.186255,1064.422874,1064.422883
309,0.085658611,10.18475,1069.731109,1069.731118
310,0.085908056,10.18325333,1074.991595,1074.991604
311,0.086158611,10.18175,1080.479775,1080.479785
312,0.086490556,10.17975833,1084.505514,1084.505524
313,0.086814722,10.17781333,1088.927107,1088.927117
314,0.087066945,10.1763,1091.127524,1091.127534
315,0.087317222,10.17479833,1088.495201,1088.495211
316,0.087565834,10.17330667,1087.050558,1087.050568
317,0.087817778,10.171795,1087.987543,1087.987553
318,0.088155,10.16977167,1087.524852,1087.524862
319,0.088483056,10.16780333,1093.012022,1093.012032
320,0.0887325,10.16630667,1090.97335,1090.97336
321,0.088981945,10.16481,1095.544943,1095.544953
322,0.089227778,10.163335,1096.104738,1096.104748
323,0.089476389,10.16184333,1095.626168,1095.626178
324,0.089807222,10.15985833,1094.155709,1094.155719
325,0.090134167,10.15789667,1096.351546,1096.351556
326,0.090381111,10.156415,1099.495252,1099.495262
327,0.090627778,10.154935,1101.004946,1101.004956
328,0.090877778,10.153435,1102.872599,1102.872609
329,0.0911275,10.15193667,1101.705666,1101.705676
330,0.091484722,10.14979333,1098.595752,1098.595762
331,0.091831111,10.147715,1099.299949,1099.299959
332,0.092080278,10.14622,1098.718827,1098.718837
333,0.092332778,10.144705,1099.92998,1099.92999
334,0.092585,10.14319167,1097.518283,1097.518293
335,0.092835,10.14169167,1100.90737,1100.907381
336,0.093181389,10.13961333,1104.833523,1104.833534
337,0.093518611,10.13759,1105.304202,1105.304213
338,0.093771945,10.13607,1109.817286,1109.817297
339,0.094023056,10.13456333,1116.455551,1116.455562
340,0.094273611,10.13306,1121.359578,1121.359589
341,0.094526667,10.13154167,1119.886518,1119.886529
342,0.094861389,10.12953333,1116.076122,1116.076133
343,0.095187222,10.12757833,1118.381036,1118.381047
344,0.095433056,10.12610333,1119.982538,1119.982549
345,0.095678889,10.12462833,1122.469913,1122.469924
346,0.095931389,10.12311333,1125.668201,1125.668212
347,0.096185278,10.12159,1129.356961,1129.356972
348,0.096520556,10.11957833,1133.246815,1133.246826
349,0.096849445,10.117605,1137.43146,1137.431471
350,0.097097778,10.116115,1134.144147,1134.144158
351,0.097346389,10.11462333,1133.504165,1133.504176
352,0.0975925,10.11314667,1130.228539,1130.22855
353,0.097836945,10.11168,1129.212775,1129.212786
354,0.098169722,10.10968333,1125.798421,1125.798432
355,0.098499445,10.107705,1127.427002,1127.427013
356,0.098748056,10.10621333,1126.967072,1126.967083
357,0.098996667,10.10472167,1124.098773,1124.098785
358,0.099242778,10.103245,1124.019462,1124.019474
359,0.099491945,10.10175,1119.219696,1119.219708
360,0.099826389,10.09871667,1113.15564,1113.155651
361,0.100155278,10.08885,1110.6279,1110.627912
362,0.100404445,10.081375,1111.872841,1111.872853
363,0.100653334,10.07390833,1109.959193,1109.959205
364,0.100901111,10.066475,1111.29125,1111.291262
365,0.101151389,10.05896667,1111.442669,1111.442681
366,0.101481389,10.04906667,1111.18042,1111.180432
367,0.101805556,10.03934167,1113.362663,1113.362675
368,0.102056111,10.031825,1116.45855,1116.458562
369,0.102306945,10.0243,1119.616056,1119.616068
370,0.102558334,10.01675833,1120.109176,1120.109188
371,0.102809722,10.00921667,1121.020065,1121.020077
372,0.103145,9.999158333,1120.313364,1120.313376
373,0.103473056,9.989316667,1119.675128,1119.67514
374,0.103723334,9.981808333,1118.978243,1118.978255
375,0.103972778,9.974325,1122.748358,1122.74837
376,0.104220834,9.966883333,1121.856181,1121.856193
377,0.104468334,9.959458333,1121.790778,1121.79079
378,0.104811667,9.949158333,1120.055757,1120.055769
379,0.105143334,9.939208333,1121.434323,1121.434335
380,0.10539,9.931808333,1117.430392,1117.430404
381,0.105638056,9.924366667,1118.488078,1118.48809
382,0.105888889,9.916841667,1114.215507,1114.215519
383,0.106137778,9.909375,1110.659946,1110.659958
384,0.106469167,9.899433333,1107.218451,1107.218463
385,0.106793334,9.889708333,1108.886843,1108.886855
386,0.107042222,9.882241667,1110.588232,1110.588244
387,0.107291945,9.87475,1106.4265,1106.426512
388,0.107540278,9.8673,1105.470243,1105.470255
389,0.107791389,9.859766667,1103.506779,1103.506791
390,0.108135,9.849458333,1099.339076,1099.339088
391,0.108470278,9.8394,1094.314508,1094.31452
392,0.108718889,9.831941667,1092.921979,1092.921991
393,0.108969445,9.824425,1089.969854,1089.969866
394,0.109218611,9.81695,1085.936802,1085.936814
395,0.109468889,9.809441667,1077.00344,1077.003452
396,0.109797778,9.799575,1067.562781,1067.562793
397,0.110123611,9.7898,1063.073655,1063.073667
398,0.110372778,9.782325,1056.399816,1056.399828
399,0.110618611,9.77495,1053.095992,1053.096004
400,0.110864445,9.767575,1055.897283,1055.897295
401,0.111112778,9.760125,1051.948894,1051.948906
402,0.111451111,9.749975,1046.718785,1046.718797
403,0.111783611,9.74,1047.069429,1047.069441
