Meas,Time,Temperature,Vmax
1,0.433686944,9.504243333,73.75541975
2,0.433934722,9.507216667,75.27361034
3,0.434186111,9.510233333,76.82781879
4,0.434433611,9.513203333,75.92674744
5,0.434681111,9.516173333,77.46250837
6,0.435063889,9.520766667,78.89414063
7,0.435426944,9.525123333,74.63694683
8,0.4356775,9.52813,71.91418532
9,0.435925556,9.531106667,68.79918601
10,0.436175,9.5341,63.72909013
11,0.436427222,9.537126667,64.59162937
12,0.436816667,9.5418,64.97631982
13,0.437185278,9.546223333,63.15833533
14,0.437433611,9.549203333,61.40458967
15,0.437686667,9.55224,63.65421059
16,0.437935278,9.555223333,61.07890084
17,0.438182778,9.558193333,63.10462081
18,0.438563056,9.562756667,65.74765272
19,0.438925556,9.567106667,64.14650792
20,0.439173333,9.57008,66.27120792
21,0.4394225,9.57307,66.68764781
22,0.439673889,9.576086667,66.50018012
23,0.439923611,9.579083333,69.28490623
24,0.440312778,9.583753333,72.41571749
25,0.440679167,9.58815,76.48362886
26,0.440928611,9.591143333,77.99302457
27,0.441177222,9.594126667,76.883396
28,0.441422778,9.597073333,75.99245221
29,0.441671667,9.60006,76.21235103
30,0.442056944,9.604683333,75.80262451
31,0.442423333,9.60908,78.25778616
32,0.442671944,9.612063333,77.50759025
33,0.442919722,9.615036667,76.61370786
34,0.4431675,9.61801,77.29627047
35,0.4434175,9.62101,80.41029244
36,0.443794722,9.625536667,83.58366135
37,0.444156111,9.629873333,81.46557311
38,0.444406389,9.632876667,82.89628283
39,0.444658611,9.635903333,77.92101249
40,0.444910556,9.638926667,82.02809726
41,0.445172778,9.642073333,81.47446857
42,0.445557778,9.646693333,80.6691858
43,0.445922222,9.651066667,79.98286628
44,0.446169167,9.65403,76.98526011
45,0.446420278,9.657043333,76.18801582
46,0.446674167,9.66009,76.24114404
47,0.446929167,9.66315,75.21965438
48,0.447316389,9.667796667,74.73103393
49,0.447685556,9.672226667,75.80317668
50,0.447935833,9.67523,77.91543756
51,0.448186111,9.678233333,79.30222408
52,0.448437778,9.681253333,79.34390492
53,0.44869,9.68428,74.38194207
54,0.449071944,9.688863333,68.76810217
55,0.449435278,9.693223333,68.57169225
56,0.449684722,9.696216667,68.2437637
57,0.449933333,9.6992,67.51103989
58,0.450185,9.70111,65.36258086
59,0.450436944,9.702621667,62.52069002
60,0.450823611,9.704941667,60.22235948
61,0.451188889,9.707133333,59.3144349
62,0.451439444,9.708636667,59.43105252
63,0.451687778,9.710126667,58.61332813
64,0.451935556,9.711613333,61.57140225
65,0.452184167,9.713105,58.99499821
66,0.452560278,9.715361667,56.29794286
67,0.452923056,9.717538333,55.23601764
68,0.453171667,9.71903,55.16830912
69,0.453421389,9.720528333,54.57871967
70,0.453671389,9.722028333,52.2582099
71,0.453919167,9.723515,51.24149427
72,0.4542975,9.725785,50.02046081
73,0.45466,9.72796,51.55621538
74,0.454906944,9.729441667,49.22042756
75,0.455158056,9.730948333,49.20417627
76,0.455407778,9.732446667,44.63513841
77,0.455653611,9.733921667,44.74623043
78,0.456034444,9.736206667,44.26007577
79,0.456398889,9.738393333,41.65550771
80,0.4566475,9.739885,44.54359275
81,0.4569,9.7414,41.78955758
82,0.457159444,9.742956667,41.69602784
83,0.4574125,9.744475,40.76243585
84,0.45779,9.74674,40.29122989
85,0.458154444,9.748926667,40.30566856
86,0.458405556,9.750433333,43.57756503
87,0.458656944,9.751941667,47.59952286
88,0.458915278,9.753491667,50.93864129
89,0.459165,9.75499,55.82851256
90,0.459544444,9.757266667,60.90119363
91,0.459909444,9.759456667,57.00288886
92,0.460159167,9.760955,56.45580251
93,0.460407778,9.762446667,59.48619732
94,0.460656944,9.763941667,52.85992074
95,0.460907778,9.765446667,49.19266465
96,0.461281389,9.767688333,44.78781415
97,0.461643056,9.769858333,41.07928415
98,0.461890556,9.771343333,39.34973937
99,0.462140833,9.772845,44.53308252
100,0.462393333,9.77436,44.90605164
101,0.462644722,9.775868333,45.13424755
102,0.463030278,9.778181667,45.45301672
103,0.4633975,9.780385,41.06469184
104,0.463651389,9.781908333,38.46563772
105,0.4639,9.7834,35.61134903
106,0.464154167,9.784925,39.27274177
107,0.464407222,9.786443333,39.95710433
108,0.464785556,9.788713333,40.94944922
109,0.465143611,9.790861667,39.21759267
110,0.465391389,9.792348333,37.81285191
111,0.465639722,9.793838333,36.77640272
112,0.4658875,9.795325,37.32947817
113,0.466137778,9.796826667,40.97211173
114,0.466516111,9.799096667,44.16305286
115,0.466877222,9.8,39.68419096
116,0.467131111,9.8,42.55387718
117,0.467384167,9.8,42.68146562
118,0.4676375,9.8,42.67732038
119,0.467889444,9.8,39.5289088
120,0.468274167,9.8,36.59388678
121,0.468640278,9.8,37.18619183
122,0.468888056,9.8,41.71690848
123,0.469139444,9.8,48.78263403
124,0.469391667,9.8,50.19199884
125,0.469642778,9.8,52.02346817
126,0.470025,9.8,53.40828447
127,0.470391111,9.8,49.73706805
128,0.470636111,9.8,46.06712485
129,0.470885,9.8,43.40895144
130,0.471136944,9.8,39.48801236
131,0.471388333,9.8,39.32802117
132,0.471770278,9.8,39.30132594
133,0.4721375,9.8,41.39578157
134,0.472390556,9.8,46.11354737
135,0.472639167,9.8,49.42491578
136,0.472893056,9.8,50.39161611
137,0.473146111,9.8,54.70197619
138,0.473533611,9.8,59.67425578
139,0.473899167,9.8,56.03270355
140,0.474151389,9.8,57.9629427
141,0.474403333,9.8,62.03377924
142,0.474651944,9.8,59.38859001
143,0.474901667,9.8,58.36582418
144,0.475283611,9.8,56.85372387
145,0.475651389,9.8,60.00488672
146,0.475898611,9.8,63.63648639
147,0.476149722,9.8,61.5952836
148,0.476399167,9.8,63.88276769
149,0.476648333,9.8,66.57349105
150,0.477030556,9.8,69.14992631
151,0.477396111,9.8,70.59064258
152,0.477643611,9.8,71.88200524
153,0.477894167,9.8,75.29051196
154,0.478148056,9.8,77.69958387
155,0.478399444,9.8,82.39052968
156,0.478788889,9.8,86.9978264
157,0.479158333,9.8,89.65362732
158,0.479408889,9.8,94.49377598
159,0.479658333,9.8,94.74053845
160,0.479909722,9.8,95.32877389
161,0.480161111,9.8,94.64062031
162,0.480543611,9.8,93.46642475
163,0.480910556,9.8,93.16075098
164,0.481158056,9.8,90.15890843
165,0.48141,9.8,90.66671361
166,0.481657778,9.8,93.0893613
167,0.48191,9.8,93.28160301
168,0.482288056,9.8,93.4549809
169,0.482648889,9.8,94.82746913
170,0.482897778,9.8,98.95058784
171,0.483147222,9.8,100.0583446
172,0.483395833,9.8,97.89860973
173,0.483646111,9.8,97.97165609
174,0.4840325,9.8,98.34456607
175,0.484399167,9.8,96.64588035
176,0.48465,9.8,97.16479917
177,0.484898611,9.8,98.59692857
178,0.48515,9.8,97.7259951
179,0.485398889,9.8,93.64460342
180,0.485788056,9.8,89.06415426
181,0.486158056,9.8,90.39857168
182,0.486404722,9.8,90.6502737
183,0.486653056,9.8,90.71082795
184,0.486906111,9.8,88.44739322
185,0.4871575,9.8,86.47863854
186,0.487545833,9.8,84.66778827
187,0.487911111,9.8,83.10955045
188,0.488158056,9.8,84.08251342
189,0.488403889,9.8,81.69948665
190,0.488654167,9.8,83.175811
191,0.488908333,9.8,84.57485313
192,0.489284722,9.8,85.28793245
193,0.489643056,9.8,83.96199913
194,0.489890556,9.8,85.68107833
195,0.490139167,9.8,86.45073004
196,0.490389167,9.8,85.38113477
197,0.49064,9.8,85.94455337
198,0.491020833,9.8,87.18791331
199,0.491382778,9.8,90.49954304
200,0.491631389,9.8,92.32840988
201,0.491884167,9.8,89.2077506
202,0.492136389,9.8,87.09206597
203,0.492387778,9.8,88.35120021
204,0.492776111,9.8,90.25812388
205,0.493144444,9.8,88.02431973
206,0.493392222,9.8,90.04015032
207,0.493639722,9.8,92.1076112
208,0.49389,9.8,96.74534007
209,0.494139444,9.8,100.5858638
210,0.494518056,9.8,103.6010893
211,0.494878056,9.8,99.27528405
212,0.49513,9.8,99.70048772
213,0.495379444,9.8,102.0856931
214,0.495627778,9.8,95.44547948
215,0.495880278,9.8,94.36810846
216,0.496268333,9.8,93.31332744
217,0.496636944,9.8,91.36315845
218,0.496886389,9.8,90.81210284
219,0.4971375,9.8,90.88780344
220,0.497386944,9.8,96.91208257
221,0.497637222,9.8,98.13987154
222,0.4980125,9.8,98.37874864
223,0.498373056,9.8,95.82881142
224,0.498624167,9.8,94.94846868
225,0.498873611,9.8,91.7916222
226,0.499123056,9.8,86.08228859
227,0.4993725,9.8,81.53026829
228,0.499758333,9.8,76.94351665
229,0.500127222,9.801526667,76.47975866
230,0.500378611,9.804543333,75.7635491
231,0.500630833,9.80757,72.61889693
232,0.500883611,9.810603333,74.28278077
233,0.501136111,9.813633333,76.08690552
234,0.501515278,9.818183333,77.70071085
235,0.501878056,9.822536667,76.03854657
236,0.502125278,9.825503333,79.23857669
237,0.502371389,9.828456667,80.24377981
238,0.502623333,9.83148,81.42330799
239,0.502873889,9.834486667,80.34982488
240,0.503261389,9.839136667,80.1029911
241,0.503628611,9.843543333,83.59970063
242,0.503880833,9.84657,89.99831359
243,0.504131389,9.849576667,93.4014169
244,0.504381667,9.85258,91.97415132
245,0.504634444,9.855613333,96.23202931
246,0.505011389,9.860136667,100.2536637
247,0.505370278,9.864443333,97.48206098
248,0.505620556,9.867446667,94.41891355
249,0.50587,9.87044,94.64457125
250,0.506123333,9.87348,91.32294681
251,0.506376389,9.876516667,87.87700558
252,0.506763889,9.881166667,84.07973825
253,0.507131944,9.885583333,84.66494144
254,0.507384167,9.88861,90.3247908
255,0.507635556,9.891626667,89.63217018
256,0.507886944,9.894643333,89.00141738
257,0.508139722,9.897676667,93.02657679
258,0.5085175,9.90221,97.72729764
259,0.508875278,9.906503333,96.48368928
260,0.509126667,9.90952,96.46140718
261,0.509379167,9.91255,96.82456827
262,0.509630278,9.915563333,92.12714239
263,0.509881389,9.918576667,92.83892939
264,0.5102625,9.92315,92.86073552
265,0.510625278,9.927503333,90.89303121
266,0.510872778,9.930473333,90.4868059
267,0.511121389,9.933456667,88.56511965
268,0.511370833,9.93645,88.88057159
269,0.511621944,9.939463333,91.11849343
270,0.512005833,9.94407,92.53622295
271,0.512370278,9.948443333,90.49908047
272,0.512617222,9.951406667,87.16393233
273,0.512867222,9.954406667,86.08547898
274,0.513119722,9.957436667,82.72815467
275,0.513369167,9.96043,83.92546987
276,0.513752222,9.965026667,85.58620324
277,0.514116389,9.969396667,85.81502025
278,0.514368056,9.972416667,87.16816046
279,0.514618333,9.97542,85.61488091
280,0.514869722,9.978436667,83.79229693
281,0.515118889,9.981426667,84.47483252
282,0.515503611,9.986043333,85.14670943
283,0.515871111,9.990453333,85.847304
284,0.516121111,9.993453333,88.06166406
285,0.516370556,9.996446667,90.06956632
286,0.516621111,9.999453333,91.99279528
287,0.516872222,10.00246667,93.33438331
288,0.517257778,10.00709333,94.35006673
289,0.517627222,10.01152667,91.74385065
290,0.517873889,10.01448667,93.66103538
291,0.518128611,10.01754333,97.1985542
292,0.518382778,10.02059333,95.31070648
293,0.518635,10.02362,98.21173387
294,0.519014444,10.02817333,101.2990059
295,0.519378056,10.03253667,100.9218788
296,0.51963,10.03556,102.1553944
297,0.519878611,10.03854333,103.4393888
298,0.520130556,10.04156667,103.4417462
299,0.520383056,10.04459667,100.0385401
300,0.520767778,10.04921333,96.14045886
301,0.521131667,10.05358,96.04698461
302,0.52138,10.05656,97.33285916
303,0.521625556,10.05950667,96.67049508
304,0.521876944,10.06252333,93.49076377
305,0.522127222,10.06552667,90.46496335
306,0.522513889,10.07016667,88.17601239
307,0.522878611,10.07454333,87.08328071
308,0.523128611,10.07754333,87.1806227
309,0.5233775,10.08053,89.257659
310,0.523624722,10.08349667,91.57531412
311,0.523871667,10.08646,96.02782735
312,0.524263611,10.09116333,99.35746524
313,0.524634722,10.09561667,98.57153188
314,0.524881667,10.09858,101.5799321
315,0.525132778,10.10159333,104.8703375
316,0.525383333,10.1046,106.280337
317,0.525639722,10.10767667,104.3342213
318,0.526023611,10.11228333,102.839242
319,0.526387222,10.11664667,105.0137236
320,0.526638611,10.11966333,104.9827787
321,0.526888611,10.12266333,106.5787399
322,0.52714,10.12568,105.7737277
323,0.527389444,10.12867333,107.8488869
324,0.527774167,10.13329,110.5963141
325,0.528139722,10.13767667,106.8646776
326,0.528391111,10.14069333,103.4358847
327,0.528641389,10.14369667,102.9214336
328,0.528891111,10.14669333,104.2458045
329,0.529141944,10.14970333,102.2371071
330,0.529523056,10.15427667,99.0143262
331,0.529890833,10.15869,99.75098274
332,0.530142778,10.16171333,101.838889
333,0.530396111,10.16475333,103.7873608
334,0.530651944,10.16782333,106.2746623
335,0.530906389,10.17087667,109.7643085
336,0.531284167,10.17541,113.8617048
337,0.531642222,10.17970667,111.9254084
338,0.531889722,10.18267667,109.8477682
339,0.532139167,10.18567,104.2101113
340,0.532390556,10.18868667,108.0580722
341,0.532638056,10.19165667,106.1366921
342,0.533013056,10.19615667,103.5047897
343,0.533371667,10.20023,104.287148
344,0.533621389,10.20172833,102.9386416
345,0.533872778,10.20323667,106.1578304
346,0.534126667,10.20476,102.5593993
347,0.534376944,10.20626167,99.28327498
348,0.534761667,10.20857,95.55086292
349,0.535130833,10.210785,90.94771178
350,0.535383056,10.21229833,93.85715274
351,0.535633333,10.2138,87.4461996
352,0.5358875,10.215325,89.65190443
353,0.536136111,10.21681667,89.81862523
354,0.536514167,10.219085,89.9855711
355,0.536876944,10.22126167,92.86212279
356,0.537125833,10.222755,97.03062539
357,0.537375,10.22425,96.79626804
358,0.537630556,10.22578333,96.80008264
359,0.537881389,10.22728833,97.32755211
360,0.538264722,10.22958833,98.33496823
361,0.538628056,10.23176833,99.34790269
362,0.538875278,10.23325167,101.3311918
363,0.539125556,10.23475333,98.96853951
364,0.539378611,10.23627167,96.75862174
365,0.539629167,10.237775,100.9066755
366,0.540009444,10.24005667,104.7391035
367,0.540374722,10.24224833,101.8122983
368,0.540622778,10.24373667,101.8310342
369,0.540871111,10.24522667,102.0192046
370,0.541118611,10.24671167,102.0322807
371,0.541366944,10.24820167,103.4247753
372,0.541747222,10.25048333,104.5721897
373,0.542108333,10.25265,106.0188787
374,0.542358889,10.25415333,108.7916663
375,0.542609722,10.25565833,104.7481508
376,0.542859444,10.25715667,101.0711196
377,0.543108611,10.25865167,99.30960395
378,0.543490833,10.260945,97.55293622
379,0.543859722,10.26315833,91.89088317
380,0.544111389,10.26466833,85.25719097
381,0.544361667,10.26617,83.23594972
382,0.544611944,10.26767167,78.80381668
383,0.544866667,10.2692,76.65660944
384,0.545255278,10.27153167,74.22714874
385,0.5456225,10.273735,72.29409582
386,0.545871111,10.27522667,69.65089547
387,0.546123056,10.27673833,72.29146022
388,0.546375556,10.27825333,73.84762987
389,0.546623889,10.27974333,78.00446321
390,0.547005833,10.282035,81.76646322
391,0.547370278,10.28422167,77.57514789
392,0.547618889,10.28571333,75.143784
393,0.547868333,10.28721,73.55651292
394,0.548117778,10.28870667,67.72741682
395,0.548371944,10.29023167,68.11926587
396,0.548763056,10.29257833,68.62190284
397,0.549132222,10.29479333,63.87690669
398,0.549379722,10.29627833,60.99620177
399,0.549631667,10.29779,61.5895464
400,0.549886111,10.29931667,57.8260684
401,0.550143611,10.3,59.50928199
402,0.550523056,10.3,62.01835946
403,0.550888333,10.3,63.18124804
404,0.551138056,10.3,66.51738324
405,0.551391944,10.3,67.74213902
406,0.551642222,10.3,69.34058748
407,0.551891667,10.3,73.669329
408,0.552284722,10.3,77.725064
409,0.552653611,10.3,74.8258339
410,0.552903333,10.3,75.61791358
411,0.553155278,10.3,78.63336988
412,0.553404722,10.3,80.89757312
413,0.553657222,10.3,82.33754982
414,0.554047222,10.3,83.16540387
415,0.554413611,10.3,85.62597647
416,0.554661389,10.3,88.23009479
417,0.5549125,10.3,90.36347919
418,0.555168333,10.3,89.60049855
419,0.555420833,10.3,87.7439868
420,0.555805278,10.3,85.8928649
421,0.556169167,10.3,82.6417487
422,0.556416667,10.3,82.44088891
423,0.556664444,10.3,80.55961844
424,0.556910833,10.3,77.09184388
425,0.557161111,10.3,71.65006793
426,0.557543056,10.3,66.9173195
427,0.5579075,10.3,62.58786613
428,0.558158056,10.3,57.20339139
429,0.5584075,10.3,59.49282845
430,0.558660556,10.3,61.01416159
431,0.558910278,10.3,64.60011284
432,0.559291111,10.3,67.79388123
433,0.559653889,10.3,65.70342114
434,0.559902222,10.3,64.43915143
435,0.560150833,10.3,67.28512813
436,0.560399722,10.3,65.34057568
437,0.560648056,10.3,67.48767649
438,0.5610375,10.3,69.13131134
439,0.561404722,10.3,70.25034494
440,0.561655833,10.3,72.45376319
441,0.561908056,10.3,73.75905414
442,0.5621575,10.3,72.23774501
443,0.562408611,10.3,73.14266624
444,0.562786944,10.3,74.4129866
445,0.563147222,10.3,69.8688481
446,0.5633975,10.3,68.96835782
447,0.563647778,10.3,67.06326378
448,0.563898333,10.3,67.94621377
449,0.564149444,10.3,63.09064841
450,0.564533889,10.3,57.6393766
451,0.564900833,10.3,57.80256452
452,0.565151944,10.3,59.660641
453,0.565401111,10.3,62.97609424
454,0.565648056,10.3,63.26401532
455,0.565895556,10.3,64.61888423
456,0.5662825,10.3,66.34590495
457,0.5666525,10.3,68.53970615
458,0.566899167,10.298605,66.4870686
459,0.567146389,10.29712167,66.84899498
460,0.567395833,10.295625,68.10186034
461,0.567646389,10.29412167,63.9997869
462,0.568033889,10.29179667,59.37089014
463,0.568403056,10.28958167,63.40894834
464,0.568653333,10.28808,67.44403849
465,0.568901944,10.28658833,73.09654394
466,0.569153889,10.28507667,76.06622664
467,0.569405556,10.28356667,75.93584699
468,0.569786667,10.28128,76.13975756
469,0.570148333,10.27911,70.92168543
470,0.570397778,10.27761333,75.47894042
471,0.570644444,10.27613333,71.34787078
472,0.570890833,10.274655,72.34679955
473,0.571139722,10.27316167,72.06172922
474,0.571516111,10.27090333,71.24789007
475,0.571876389,10.26874167,74.67476109
476,0.572123611,10.26725833,81.77469213
477,0.572369444,10.26578333,82.55849257
478,0.572624167,10.264255,80.73574825
479,0.572872222,10.26276667,83.26138425
480,0.573252222,10.26048667,85.92208598
481,0.573615,10.25831,86.55204928
482,0.5738625,10.256825,89.365192
483,0.574113056,10.25532167,87.37179249
484,0.5743625,10.253825,84.273642
485,0.57461,10.25234,84.61090749
486,0.574999167,10.250005,84.67792698
487,0.57537,10.24778,85.90128145
488,0.575617778,10.24629333,86.2591787
489,0.57587,10.24478,83.44458499
490,0.576118611,10.24328833,83.03739242
491,0.576368056,10.24179167,87.42472766
492,0.576761111,10.23943333,91.64824619
493,0.577130278,10.23721833,89.30883319
494,0.5773825,10.235705,92.06151655
495,0.5776325,10.234205,92.16156058
496,0.577883056,10.23270167,91.31153308
497,0.578132222,10.23120667,87.79210872
498,0.578506944,10.22895833,84.10100326
499,0.578866111,10.22680333,78.12886118
500,0.579114722,10.22531167,70.927913
501,0.5793625,10.223825,68.92818949
502,0.57961,10.22234,66.01656315
503,0.5798625,10.220825,65.21529026
504,0.580243333,10.21854,64.16816448
505,0.580608889,10.21634667,61.79014591
506,0.580861944,10.21482833,62.44647451
507,0.581111944,10.21332833,65.11123938
508,0.581360556,10.21183667,66.59997094
509,0.581613056,10.21032167,70.79341418
510,0.582001111,10.20799333,75.2402868
511,0.582365278,10.20580833,72.24255696
512,0.582618056,10.20429167,75.14420631
513,0.5828675,10.202795,77.76406195
514,0.583115278,10.20130833,76.61290942
515,0.583361111,10.20016667,77.46896846
516,0.583739167,10.202435,78.2522526
517,0.584101944,10.20461167,75.77404644
518,0.584351667,10.20611,77.49802317
519,0.584600833,10.207605,79.76078748
520,0.584854722,10.20912833,77.61727568
521,0.5851025,10.210615,79.05046773
522,0.585483611,10.21290167,80.89234511
523,0.5858475,10.215085,82.25199828
524,0.5860975,10.216585,86.01689517
525,0.586346944,10.21808167,84.2468608
526,0.586593889,10.21956333,84.47592215
527,0.586843889,10.22106333,90.99991971
528,0.587229722,10.22337833,97.54592492
529,0.587598056,10.22558833,98.77286021
530,0.587848056,10.22708833,100.3511072
531,0.588096667,10.22858,100.5612947
532,0.588348056,10.23008833,100.3216301
533,0.588601389,10.23160833,99.34859321
534,0.588985278,10.23391167,98.56070593
535,0.589348611,10.23609167,98.01738929
536,0.589600833,10.237605,98.78578929
