Meas,Time,Temperature,Vmax
1,0.533810556,10.6,203.1405269
2,0.534148056,10.6,202.3712891
3,0.534480833,10.6,200.3584458
4,0.534733056,10.6,196.2570198
5,0.534983333,10.6,198.6492264
6,0.535230278,10.6,206.0605013
7,0.5354825,10.6,205.59225
8,0.535823333,10.6,205.1260714
9,0.536153056,10.6,204.861432
10,0.536404444,10.6,203.3580267
11,0.536659167,10.6,198.671453
12,0.5369125,10.6,199.5964719
13,0.53716,10.6,200.2588001
14,0.537497222,10.6,201.169451
15,0.537828056,10.6,204.7073529
16,0.53808,10.6,199.5460978
17,0.538329444,10.6,203.1942741
18,0.53858,10.6,198.2952452
19,0.538831389,10.6,199.4266189
20,0.539163611,10.6,200.114668
21,0.539491111,10.6,206.263001
22,0.539743333,10.6,206.8443523
23,0.539994722,10.6,211.7090125
24,0.5402475,10.6,210.7515997
25,0.540501389,10.6,210.7613222
26,0.540835833,10.6,211.2043111
27,0.541162222,10.6,212.4073422
28,0.5414125,10.6,216.0638813
29,0.5416675,10.6,219.2791846
30,0.541918056,10.6,221.5897314
31,0.542170833,10.6,222.472012
32,0.542503611,10.6,222.6829397
33,0.542829722,10.6,219.1679668
34,0.543078333,10.6,215.9027326
35,0.543331389,10.6,216.8491275
36,0.543582778,10.6,216.8186166
37,0.543836667,10.6,215.5956021
38,0.544173889,10.6,214.4218351
39,0.544501111,10.6,216.9056872
40,0.544748611,10.6,217.8350766
41,0.544998333,10.6,219.8028771
42,0.545251111,10.6,222.4015825
43,0.545500556,10.6,222.7814994
44,0.545836111,10.6,223.0797308
45,0.546168611,10.6,226.4132484
46,0.546420833,10.6,228.5353791
47,0.546673611,10.6,226.2220387
48,0.546925833,10.6,226.5032716
49,0.54718,10.6,233.8719223
50,0.547519167,10.6,241.141978
51,0.54785,10.6,239.0093601
52,0.548100278,10.6,239.7901708
53,0.548350556,10.6,235.3960086
54,0.548601111,10.6,235.8928039
55,0.548850556,10.6,234.3733705
56,0.549188611,10.6,232.6553959
57,0.549519444,10.6,233.8725313
58,0.549768889,10.6,231.3958476
59,0.550017222,10.6,231.9629393
60,0.550267778,10.6,225.9957215
61,0.550517222,10.6,224.0293823
62,0.550855278,10.6,221.7734754
63,0.5511925,10.6,217.1038955
64,0.551446389,10.6,215.3999344
65,0.551693889,10.6,216.5399532
66,0.551943611,10.6,218.5462397
67,0.552198333,10.6,219.4835525
68,0.552536667,10.6,220.3931201
69,0.552867222,10.6,216.9505285
70,0.553117778,10.6,212.2082161
71,0.553367222,10.6,212.4481363
72,0.5536175,10.6,214.5618768
73,0.5538725,10.6,207.6921886
74,0.554218056,10.6,201.2383297
75,0.554550278,10.6,197.5767752
76,0.554800833,10.6,193.8397483
77,0.555053056,10.6,189.8504089
78,0.555303611,10.6,191.316204
79,0.555554722,10.6,186.2597064
80,0.555893333,10.6,180.8552691
81,0.556219167,10.6,178.7617962
82,0.556470278,10.6,178.9995213
83,0.556720278,10.6,177.9346901
84,0.556971944,10.6,177.3148977
85,0.557221389,10.6,175.3510652
86,0.557558611,10.6,172.7902932
87,0.557890278,10.6,170.8501556
88,0.558140278,10.6,169.7748803
89,0.558390833,10.6,168.7404337
90,0.558640278,10.6,167.8808328
91,0.558889444,10.6,161.8895442
92,0.559222222,10.6,156.0008227
93,0.559551111,10.6,157.8046241
94,0.559803333,10.6,161.5873745
95,0.560052222,10.6,164.716207
96,0.560304167,10.6,163.0209132
97,0.560556111,10.6,166.4555221
98,0.560892778,10.6,169.7911503
99,0.561223333,10.6,170.9967638
100,0.561471944,10.6,170.485994
101,0.5617225,10.6,171.5687901
102,0.561974722,10.6,173.1396748
103,0.562229444,10.6,176.7402159
104,0.562563056,10.6,180.463084
105,0.562891944,10.6,181.5199758
106,0.563141111,10.6,184.2349849
107,0.563393611,10.6,187.1253719
108,0.563642222,10.6,187.9421171
109,0.563893333,10.6,188.1035882
110,0.564227222,10.6,187.6218494
111,0.564556111,10.6,185.947213
112,0.564804444,10.6,188.2723726
113,0.565055556,10.6,188.2017196
114,0.565305,10.6,187.072218
115,0.565551944,10.6,185.5346737
116,0.565891667,10.6,184.0422085
117,0.566218889,10.6,187.2177952
118,0.566468333,10.6,190.0103875
119,0.566717778,10.6,189.2115608
120,0.566967222,10.6,190.419817
121,0.567219444,10.6,189.5740216
122,0.567560278,10.6,188.8572265
123,0.567891111,10.6,187.0165001
124,0.568138611,10.6,187.0436359
125,0.568392778,10.6,190.1067945
126,0.568645833,10.6,198.6649885
127,0.568897222,10.6,201.1413155
128,0.569228611,10.6,202.7071982
129,0.569551944,10.6,199.0934201
130,0.569798611,10.6,195.5203704
131,0.5700475,10.6,194.2378263
132,0.570295,10.6,192.7612253
133,0.570541944,10.6,192.1064674
134,0.570881667,10.6,191.9062979
135,0.571211667,10.6,195.3789255
136,0.5714675,10.6,192.5786789
137,0.571718611,10.6,198.7863828
138,0.571970278,10.6,199.4552278
139,0.572223889,10.6,194.2176594
140,0.572565,10.6,188.73644
141,0.572895556,10.6,189.2416182
142,0.573149722,10.6,191.5809366
143,0.573400833,10.6,198.0879987
144,0.573655833,10.6,196.9955387
145,0.573905278,10.6,198.1483334
146,0.574243333,10.6,199.6239286
147,0.574577778,10.6,198.9271427
148,0.574826389,10.6,199.1427198
149,0.575075833,10.6,204.0348168
150,0.575325556,10.6,204.4169746
151,0.575575,10.6,203.7119042
152,0.575915278,10.6,202.7794673
153,0.576244167,10.6,201.7374169
154,0.576491111,10.6,200.4286872
155,0.576738889,10.6,201.5446431
156,0.576990278,10.6,201.167184
157,0.577243056,10.6,200.1474805
158,0.577583889,10.6,198.4185883
159,0.577913056,10.6,198.0230702
160,0.578166667,10.6,200.131539
161,0.578421944,10.6,200.9801123
162,0.578673889,10.6,203.6327273
163,0.578922778,10.6,204.5552386
164,0.579261667,10.6,205.8966999
165,0.579593333,10.6,208.6451226
166,0.579844722,10.6,214.5609202
167,0.580098611,10.6,218.9114222
168,0.580350833,10.6,220.0217921
169,0.580602222,10.6,225.1448488
170,0.580943611,10.6,230.1937346
171,0.581275278,10.6,232.6000567
172,0.581524167,10.6,234.171498
173,0.581774167,10.6,232.982929
174,0.582022778,10.6,233.9661248
175,0.582274167,10.6,235.589514
176,0.582616111,10.6,236.9815748
177,0.582948889,10.6,239.4455105
178,0.583197222,10.6,236.8141999
179,0.583447778,10.6,233.0557944
180,0.583704444,10.6,232.3473224
181,0.583958333,10.6,233.7059587
182,0.584290833,10.6,234.4174544
183,0.584616389,10.6,229.3502909
184,0.584865833,10.6,228.2584768
185,0.585117222,10.6,231.176909
186,0.585367222,10.6,232.5029412
187,0.585616111,10.6,235.4063576
188,0.585951944,10.6,238.5386293
189,0.586279167,10.6,238.10796
190,0.586528889,10.6,236.6880852
191,0.586778889,10.6,236.6754278
192,0.587027778,10.6,239.5117429
193,0.587274444,10.6,237.4740269
194,0.587612222,10.6,235.8874521
195,0.587943889,10.6,235.1082403
196,0.588197222,10.6,235.027775
197,0.588451389,10.6,234.218698
198,0.5887,10.6,234.2848469
199,0.588949444,10.6,232.7964469
200,0.589283611,10.6,230.7128796
201,0.589609722,10.6,233.772424
202,0.589859167,10.6,236.3302046
203,0.5901075,10.6,232.1416066
204,0.590356389,10.6,230.9621354
205,0.5906075,10.6,230.2450164
206,0.590947778,10.6,229.0427313
207,0.59128,10.6,224.1726249
208,0.591526944,10.6,222.0897165
209,0.591774722,10.6,221.1446451
210,0.592027778,10.6,216.7321856
211,0.592278889,10.6,210.4316949
212,0.592616111,10.6,203.9408515
213,0.592943889,10.6,205.1238272
214,0.593198056,10.6,205.133072
215,0.593450278,10.6,206.5107604
216,0.593699722,10.6,204.2897847
217,0.5939475,10.6,205.908876
218,0.5942825,10.6,207.2068663
219,0.594610833,10.6,211.414722
220,0.59486,10.6,209.5541762
221,0.595108611,10.6,211.7873186
222,0.5953575,10.6,214.4702145
223,0.595610278,10.6,214.9002208
224,0.595945556,10.6,215.2348779
225,0.596274722,10.6,212.2648525
226,0.596524167,10.6,210.2026286
227,0.59677,10.6,207.8037291
228,0.597017222,10.6,206.7466272
229,0.597263333,10.6,203.5241264
230,0.597610278,10.6,200.2644981
231,0.597942222,10.6,196.7883778
232,0.598191667,10.6,197.1032929
233,0.598441944,10.6,196.9974957
234,0.598692222,10.6,196.5253988
235,0.598942778,10.6,196.6670546
236,0.599280833,10.6,196.5395954
237,0.599612222,10.6,196.1100186
238,0.599861667,10.6,196.8012173
239,0.600113333,10.6,195.5301126
240,0.600361111,10.6,196.3076264
241,0.600610556,10.6,200.1544125
242,0.600945556,10.6,204.2657901
243,0.601272778,10.6,207.2127069
244,0.6015225,10.6,205.7286121
245,0.601773611,10.6,204.440547
246,0.602024167,10.6,209.4437742
247,0.602273333,10.6,217.8648463
248,0.602612222,10.6,225.0076071
249,0.602944167,10.6,225.6294154
250,0.603194444,10.6,224.9042226
251,0.603444722,10.6,228.4689639
252,0.603696111,10.6,226.6099904
253,0.603945556,10.6,226.7864446
254,0.604279167,10.6,227.1042831
255,0.604610833,10.6,227.8569052
256,0.604859167,10.6,231.5041547
257,0.605107778,10.6,234.7413778
258,0.60536,10.6,236.4763652
259,0.605609722,10.6,229.7360639
260,0.605951389,10.6,223.0436289
261,0.606280833,10.6,220.3637029
262,0.606529444,10.6,220.4481669
263,0.606785278,10.6,223.1146216
264,0.607035833,10.6,224.5468703
265,0.607285,10.6,223.2392918
266,0.607620556,10.6,221.6197704
267,0.607950556,10.6,219.7733745
268,0.608203611,10.6,217.2828805
269,0.608456667,10.6,221.3595674
270,0.608708056,10.6,218.5881391
271,0.608954444,10.6,215.9441628
272,0.609287222,10.6,213.2709658
273,0.609617222,10.6,209.7621287
274,0.6098675,10.6,208.8736778
275,0.610118611,10.6,208.4694953
276,0.610366111,10.6,207.2241179
277,0.610613889,10.6,210.0049025
278,0.610945556,10.6,212.335834
279,0.611272778,10.6,212.6731693
280,0.611523056,10.6,208.3870394
281,0.611771944,10.6,206.1817574
282,0.612024722,10.6,206.7967757
283,0.612278056,10.6,201.0208559
284,0.612612222,10.6,194.8642147
285,0.612940556,10.6,194.6939098
286,0.6131925,10.6,199.28381
287,0.613444722,10.6,200.0785554
288,0.613697222,10.6,199.564727
289,0.613954444,10.6,199.9092174
290,0.614284722,10.6,200.0816469
291,0.614606944,10.6,201.1367361
292,0.614854722,10.6,203.5599531
293,0.615105,10.6,201.3725501
294,0.615356389,10.6,204.7908074
295,0.615608333,10.6,207.5198907
296,0.615945556,10.6,210.113445
297,0.616275556,10.6,209.4154017
298,0.616523889,10.6,207.4632615
299,0.616771389,10.6,204.0898358
300,0.617020833,10.6,203.5766395
301,0.617271389,10.6,204.4436482
302,0.617613889,10.6,204.8214043
303,0.617945833,10.6,199.8585543
304,0.618200556,10.6,202.078441
305,0.618456667,10.6,199.2925704
306,0.618706111,10.6,198.6856689
307,0.618955556,10.6,200.3967588
308,0.619290833,10.6,202.3877724
309,0.61962,10.6,203.3810143
310,0.619868611,10.6,202.318253
311,0.620118889,10.6,207.026225
312,0.620370278,10.6,208.1436096
313,0.620619167,10.6,205.8160506
314,0.620952222,10.6,203.3582307
315,0.621278056,10.6,200.3881965
316,0.621525,10.6,204.0910566
317,0.621776389,10.6,206.517861
318,0.622026944,10.6,208.084064
319,0.622279444,10.6,211.8377112
320,0.622613333,10.6,215.246438
321,0.622941111,10.6,217.4972002
322,0.623191389,10.6,218.3327677
323,0.623444722,10.6,223.386043
324,0.623696111,10.6,222.1686289
325,0.623948333,10.6,226.6760491
326,0.624285278,10.6,231.2738995
327,0.624616111,10.6,225.2796552
328,0.624868056,10.6,224.2641801
329,0.625121389,10.6,223.8793221
330,0.625381111,10.6,221.5403666
331,0.625631944,10.6,219.9424475
332,0.625968333,10.6,217.7917138
333,0.626294722,10.6,220.0788246
334,0.626546111,10.6,219.2715944
335,0.6268,10.6,217.766447
336,0.627049444,10.6,214.8243709
337,0.627300556,10.6,210.7981721
338,0.627638889,10.6,206.36449
339,0.627968611,10.6,207.100602
340,0.628216389,10.6,201.9406751
341,0.628463889,10.6,202.4602251
342,0.628710556,10.6,203.2824681
343,0.628959167,10.6,207.6853954
344,0.629298889,10.6,212.2178691
345,0.629630833,10.6,213.2883217
346,0.629880278,10.6,212.0236291
347,0.630128889,10.6,208.6937659
348,0.630377222,10.6,204.0885828
349,0.6306275,10.6,201.8954368
350,0.630963056,10.6,199.4873194
351,0.631292778,10.6,201.7436608
352,0.631543056,10.6,201.138275
353,0.631793333,10.6,200.7878917
354,0.632041389,10.6,200.792277
355,0.632294444,10.6,203.5802555
356,0.632631667,10.6,206.1059961
357,0.632959444,10.6,201.6556048
358,0.633210833,10.6,202.4528813
359,0.633465,10.60079,202.9907318
360,0.633716111,10.60229667,201.1373924
361,0.633968333,10.60381,205.2557763
362,0.6343075,10.605845,209.0987977
363,0.63464,10.60784,212.6226537
364,0.634891111,10.60934667,210.362829
365,0.635139722,10.61083833,205.3961789
366,0.635389444,10.61233667,207.1152881
367,0.635643333,10.61386,210.3358738
368,0.635985,10.61591,213.5360388
369,0.6363175,10.617905,215.481712
370,0.636564444,10.61938667,214.8111966
371,0.636815833,10.620895,215.4811893
372,0.637065,10.62239,217.8520667
373,0.637319167,10.623915,219.4013377
374,0.637666389,10.62599833,220.3602954
375,0.637997778,10.62798667,222.4038878
376,0.638242778,10.62945667,226.1315994
377,0.638492222,10.63095333,223.9344817
378,0.638744722,10.63246833,224.6726019
379,0.638996944,10.63398167,226.1192162
380,0.639336667,10.63602,227.6488477
381,0.639667222,10.63800333,225.413969
382,0.639918611,10.63951167,227.2267774
383,0.640169167,10.641015,226.0991614
384,0.640417778,10.64250667,226.8644757
385,0.640669722,10.64401833,229.6243703
386,0.641006667,10.64604,231.9845756
387,0.641336667,10.64802,232.754295
388,0.641586111,10.64951667,234.2396196
389,0.641836667,10.65102,234.2109997
390,0.642090556,10.65254333,229.9361093
391,0.642341667,10.65405,227.0458387
392,0.642678056,10.65606833,223.7243386
393,0.643011944,10.65807167,223.6173482
394,0.643261389,10.65956833,223.6293298
395,0.643509722,10.66105833,223.5002533
396,0.643760833,10.662565,223.273401
397,0.644012222,10.66407333,220.7079373
398,0.644348611,10.66609167,218.5508781
399,0.644676389,10.66805833,219.6004748
400,0.644926111,10.66955667,214.4591342
401,0.645175556,10.67105333,213.153859
402,0.645425556,10.67255333,213.4306156
403,0.645678056,10.67406833,208.4213812
404,0.646016111,10.67609667,202.92093
405,0.646346944,10.67808167,203.3893551
406,0.646598889,10.67959333,207.0298763
407,0.646851111,10.68110667,206.8318619
408,0.647101667,10.68261,207.1778251
409,0.647353889,10.68412333,206.3656506
410,0.647691944,10.68615167,205.3624255
411,0.64802,10.68812,204.1739534
412,0.648271944,10.68963167,208.3496737
413,0.648523056,10.69113833,209.0004238
414,0.648773611,10.69264167,209.8308925
415,0.649022222,10.69413333,208.0633979
416,0.649361944,10.69617167,206.2720594
417,0.649695,10.69817,204.6561363
418,0.6499525,10.699715,204.7678535
419,0.650207222,10.70124333,206.391491
420,0.650461111,10.70276667,205.2778273
421,0.650711111,10.70426667,207.1270914
422,0.651049722,10.70629833,208.5593091
423,0.651380556,10.70828333,208.0092993
424,0.651628333,10.70977,208.6770796
425,0.651876667,10.71126,206.9174361
426,0.652125278,10.71275167,204.6383666
427,0.652374722,10.71424833,205.6848104
428,0.6527175,10.716305,206.9708975
429,0.65305,10.7183,209.6748351
430,0.653300556,10.71980333,210.2907537
431,0.653551667,10.72131,215.3951301
432,0.653801944,10.72281167,220.1153357
433,0.654051389,10.72430833,219.6988388
434,0.654389444,10.72633667,218.8246149
435,0.654719722,10.72831833,216.8740975
436,0.654968889,10.72981333,218.4114275
437,0.655222778,10.73133667,219.3723751
438,0.655475278,10.73285167,219.2692498
439,0.655724722,10.73434833,219.2839142
440,0.656057222,10.73634333,219.1309271
441,0.656386111,10.73831667,217.0579422
442,0.656635278,10.73981167,211.0816102
443,0.656883056,10.74129833,215.669479
444,0.6571325,10.742795,216.9023466
445,0.657384167,10.744305,216.5023846
446,0.657723056,10.74633833,215.9783878
447,0.658051944,10.74831167,213.3381686
448,0.658305833,10.749835,215.4188663
449,0.658560833,10.751365,214.3010992
450,0.65881,10.75286,214.7230297
451,0.659061667,10.75437,216.8159297
452,0.6593925,10.756355,218.5552805
453,0.659721111,10.75832667,216.791658
454,0.659972778,10.75983667,215.1569611
455,0.660225,10.76135,215.093072
456,0.660476667,10.76286,213.3470861
457,0.660728333,10.76437,208.6724581
458,0.6610625,10.766375,203.7265079
459,0.661387222,10.76832333,202.5200595
460,0.661637222,10.76982333,200.7903382
461,0.661886111,10.77131667,199.6549655
462,0.662136389,10.77281833,199.762382
463,0.6623875,10.774325,204.0626617
464,0.662726667,10.77636,208.8675294
465,0.663056389,10.77833833,214.4557359
466,0.663303056,10.77981833,213.3897669
467,0.663548611,10.78129167,214.3489609
468,0.663795556,10.78277333,211.2921197
469,0.664046944,10.78428167,213.0964111
470,0.664385833,10.786315,214.2809425
471,0.664718611,10.78831167,214.9414566
472,0.664967222,10.78980333,217.7497884
473,0.6652175,10.791305,217.8780444
474,0.665465833,10.792795,219.9608456
475,0.665712778,10.79427667,222.2244718
476,0.666051667,10.79631,224.1241118
477,0.666385,10.79831,220.6165296
478,0.666634722,10.79980833,220.370262
479,0.666885833,10.8,221.5971967
480,0.667134722,10.8,220.1603798
481,0.667381944,10.8,218.9741585
482,0.667723889,10.8,217.4752293
483,0.668060833,10.8,221.3597781
484,0.668307778,10.8,222.6380945
485,0.668554167,10.8,219.8562586
486,0.668803056,10.8,222.6501126
487,0.669055,10.8,222.6264781
488,0.6693925,10.8,222.6736912
489,0.669721389,10.8,221.629576
490,0.669970833,10.8,216.6425178
491,0.670221944,10.8,214.2928947
492,0.670475,10.8,216.6417848
493,0.670724444,10.8,217.5786555
494,0.671060833,10.8,218.1585575
495,0.671389444,10.8,220.4660001
496,0.671638889,10.8,218.0023867
497,0.671886944,10.8,212.5006527
498,0.672138056,10.8,211.0281181
499,0.672391944,10.8,211.3169618
500,0.672725556,10.8,211.2833293
501,0.673053611,10.8,204.6014432
502,0.673305556,10.8,204.5354656
503,0.673554444,10.8,205.210765
504,0.673804722,10.8,201.7523416
505,0.674053333,10.8,203.0868557
506,0.674386111,10.8,204.2068394
507,0.674716944,10.8,202.9722262
508,0.674966389,10.8,206.1366637
509,0.675211944,10.8,206.5947465
510,0.675461389,10.8,204.6774556
511,0.675711667,10.8,205.0899503
512,0.676058333,10.8,204.9390104
513,0.6763925,10.8,206.8006777
514,0.676643611,10.8,205.1568783
515,0.676895278,10.8,205.868081
516,0.677146389,10.8,205.1236953
517,0.677398611,10.8,200.0584868
518,0.677731944,10.8,195.0319729
519,0.678060278,10.8,194.8925125
520,0.678307778,10.8,191.8514854
521,0.678556389,10.8,190.0815348
522,0.6788075,10.8,190.101766
523,0.679053333,10.8,189.3732185
524,0.679390556,10.8,188.5666274
525,0.679720278,10.8,190.9342251
526,0.679970833,10.8,189.0874913
527,0.680220278,10.8,192.700098
528,0.680470556,10.8,191.3995843
529,0.680722778,10.8,189.2048931
530,0.681060833,10.8,186.7206304
531,0.681392222,10.8,186.0473652
532,0.681640278,10.8,188.0841373
533,0.681888611,10.8,191.2980045
534,0.682138056,10.8,189.3160456
535,0.682391111,10.8,186.811664
536,0.682728611,10.8,184.1289082
537,0.683063611,10.8,186.1904983
538,0.683316111,10.8,187.0540908
539,0.683568056,10.8,187.2212827
540,0.683816667,10.8,185.273856
541,0.684067778,10.8,186.076403
542,0.684404167,10.8,186.7625562
543,0.684733056,10.8,188.6539443
544,0.6849825,10.8,186.0718737
545,0.685235833,10.8,189.6793232
546,0.685486111,10.8,191.9209513
547,0.6857375,10.8,192.5601259
548,0.686074722,10.8,193.2554397
549,0.686406389,10.8,196.9982905
550,0.686659444,10.8,199.2610698
551,0.686910833,10.8,199.5955528
552,0.687160833,10.8,201.7169193
553,0.6874125,10.8,207.0131391
554,0.687753056,10.8,212.1291842
555,0.688085556,10.8,215.842401
556,0.688338056,10.8,218.4002969
557,0.688594444,10.8,222.7064351
558,0.688845833,10.8,221.9614029
559,0.689097222,10.8,221.2570087
560,0.689432778,10.8,220.2578423
561,0.689759722,10.8,218.4327266
562,0.690006111,10.8,212.0623567
563,0.6902575,10.8,211.2765823
564,0.690505278,10.8,215.5621823
565,0.690754444,10.8,214.1023368
566,0.691093056,10.8,212.513168
567,0.691426389,10.8,213.1786417
568,0.691676389,10.8,214.6292773
569,0.691926111,10.8,214.5504763
570,0.692177222,10.8,217.7860349
571,0.692428889,10.8,220.4536609
572,0.692771111,10.8,223.0267595
573,0.693107778,10.8,222.760516
574,0.693358889,10.8,219.9449552
575,0.693608333,10.8,220.182227
576,0.693858056,10.8,223.5377947
