Meas,Time,Temperature,Vmax.og,Vmax.inst
1,0,9.602606667,-12.43040584,-12.43040584
2,0.000337222,9.606653333,-11.75628216,-11.75628216
3,0.000669167,9.610636667,-15.93012438,-15.93012438
4,0.000915833,9.613596667,-17.26298834,-17.26298834
5,0.0011625,9.616556667,-14.61956152,-14.61956152
6,0.001407222,9.619493333,-15.21304469,-15.21304469
7,0.001655278,9.62247,-11.14722818,-11.14722818
8,0.001994722,9.626543333,-7.147349365,-7.147349365
9,0.002325556,9.630513333,-8.968314952,-8.968314952
10,0.002574167,9.633496667,-2.906235594,-2.906235594
11,0.002821944,9.63647,-1.776610253,-1.776610253
12,0.003075,9.639506667,0.12401667,0.12401667
13,0.0033275,9.642536667,-1.415930047,-1.415930047
14,0.003668889,9.646633333,-2.897665403,-2.897665403
15,0.004001667,9.650626667,-1.796889974,-1.796889975
16,0.004248333,9.653586667,-5.006621853,-5.006621853
17,0.004498611,9.65659,-4.607353686,-4.607353687
18,0.004746389,9.659563333,-8.97994989,-8.979949891
19,0.004993889,9.662533333,-9.891568871,-9.891568871
20,0.005335833,9.666636667,-10.65081362,-10.65081362
21,0.005671944,9.67067,-5.541057699,-5.5410577
22,0.005922222,9.673673333,-8.497200571,-8.497200572
23,0.006169167,9.676636667,-13.40229905,-13.40229905
24,0.006418333,9.679626667,-20.43658224,-20.43658224
25,0.006669444,9.68264,-19.92573968,-19.92573968
26,0.007003889,9.686653333,-19.64830226,-19.64830226
27,0.0073275,9.690536667,-20.75090641,-20.75090641
28,0.007575278,9.69351,-23.4159122,-23.4159122
29,0.007821111,9.69646,-21.27013598,-21.27013598
30,0.008069444,9.69944,-20.98861992,-20.98861992
31,0.008316944,9.70241,-21.91669428,-21.91669428
32,0.008655,9.706466667,-22.8080592,-22.8080592
33,0.008986111,9.71044,-21.336806,-21.336806
34,0.009235556,9.713433333,-23.66779529,-23.66779529
35,0.009485,9.716426667,-24.16396474,-24.16396474
36,0.009735278,9.71943,-24.50412859,-24.5041286
37,0.009984722,9.722423333,-19.02474298,-19.02474298
38,0.010325833,9.726516667,-13.41344003,-13.41344003
39,0.010665278,9.73059,-7.157721461,-7.157721462
40,0.010916667,9.733606667,-6.65642666,-6.656426661
41,0.01117,9.736646667,-11.38524065,-11.38524065
42,0.011416389,9.739603333,-9.792169211,-9.792169212
43,0.011664444,9.74258,-10.25646467,-10.25646467
44,0.012001111,9.74662,-10.57155618,-10.57155618
45,0.012329722,9.750563333,-8.632495098,-8.632495099
46,0.012576111,9.75352,-7.482243437,-7.482243438
47,0.012822778,9.75648,-6.916705397,-6.916705399
48,0.013076667,9.759526667,-6.330453303,-6.330453304
49,0.013326944,9.76253,-9.890125372,-9.890125374
50,0.013668056,9.766623333,-13.55422068,-13.55422068
51,0.014003611,9.77065,-12.9177789,-12.9177789
52,0.014253889,9.773653333,-14.52939552,-14.52939552
53,0.014501389,9.776623333,-12.97757899,-12.97757899
54,0.014752778,9.77964,-10.18472357,-10.18472357
55,0.015003056,9.782643333,-12.688394,-12.688394
56,0.0153375,9.786656667,-15.26847177,-15.26847177
57,0.01566,9.790526667,-10.88875437,-10.88875438
58,0.015905833,9.793476667,-12.64279843,-12.64279843
59,0.016151667,9.796426667,-14.02432169,-14.02432169
60,0.016400278,9.79941,-15.09494233,-15.09494233
61,0.016653333,9.8,-19.12501264,-19.12501264
62,0.016995,9.8,-23.04193952,-23.04193953
63,0.017328333,9.8,-20.67836435,-20.67836436
64,0.017577222,9.8,-18.01652403,-18.01652403
65,0.017825556,9.8,-16.38097354,-16.38097354
66,0.018078611,9.8,-17.758655,-17.758655
67,0.01833,9.8,-17.82723854,-17.82723854
68,0.01867,9.8,-17.37278134,-17.37278134
69,0.019001389,9.8,-15.48687064,-15.48687064
70,0.019249167,9.8,-14.34400857,-14.34400858
71,0.019495833,9.8,-11.43591784,-11.43591784
72,0.019744722,9.8,-14.13383104,-14.13383104
73,0.019991111,9.8,-12.03539726,-12.03539726
74,0.020330278,9.8,-9.985823247,-9.985823249
75,0.020661944,9.8,-9.439090324,-9.439090327
76,0.020911389,9.8,-8.838841588,-8.83884159
77,0.021163333,9.8,-12.11379974,-12.11379974
78,0.021413056,9.8,-10.83349264,-10.83349264
79,0.021663611,9.8,-10.84704072,-10.84704073
80,0.022004167,9.8,-11.02637712,-11.02637712
81,0.022333056,9.8,-10.81523931,-10.81523931
82,0.022583333,9.8,-13.58782837,-13.58782837
83,0.022833056,9.8,-13.59549321,-13.59549321
84,0.023080556,9.8,-15.41652367,-15.41652368
85,0.023328056,9.8,-14.26847119,-14.26847119
86,0.023674167,9.8,-13.15600639,-13.1560064
87,0.024008056,9.8,-13.06582695,-13.06582696
88,0.024255833,9.8,-12.04502412,-12.04502412
89,0.024501667,9.8,-11.84603302,-11.84603302
90,0.024752778,9.8,-13.36869128,-13.36869128
91,0.025002222,9.8,-13.53097319,-13.5309732
92,0.025341944,9.8,-13.78304825,-13.78304826
93,0.025676389,9.8,-14.37335506,-14.37335507
94,0.025923889,9.8,-12.97486067,-12.97486067
95,0.02617,9.8,-15.43251602,-15.43251602
96,0.0264175,9.8,-20.74929151,-20.74929152
97,0.026666111,9.8,-20.59856554,-20.59856555
98,0.026997778,9.8,-20.49863689,-20.4986369
99,0.027322778,9.8,-18.82956855,-18.82956856
100,0.027567778,9.8,-20.69567052,-20.69567052
101,0.027818333,9.8,-23.29368399,-23.293684
102,0.028069444,9.8,-21.60948858,-21.60948859
103,0.028316111,9.8,-19.78686463,-19.78686464
104,0.028650833,9.8,-17.53912701,-17.53912702
105,0.0289825,9.8,-17.88296319,-17.8829632
106,0.029232778,9.8,-19.21972889,-19.2197289
107,0.029480278,9.8,-19.38856392,-19.38856393
108,0.029729722,9.8,-18.96262615,-18.96262616
109,0.029980278,9.8,-20.83578478,-20.83578479
110,0.030321944,9.8,-23.21175601,-23.21175602
111,0.030654722,9.8,-20.12361158,-20.12361158
112,0.030899167,9.8,-21.09689006,-21.09689007
113,0.031148056,9.8,-24.71709193,-24.71709194
114,0.031397222,9.8,-22.71330834,-22.71330835
115,0.031646944,9.8,-17.78638844,-17.78638845
116,0.031986944,9.8,-12.53282721,-12.53282722
117,0.03232,9.8,-10.85547024,-10.85547024
118,0.032568889,9.8,-10.6918663,-10.6918663
119,0.032818056,9.8,-14.1639742,-14.1639742
120,0.033067778,9.8,-6.222223564,-6.222223567
121,0.033317222,9.801206667,-6.77011944,-6.770119444
122,0.033656944,9.803245,-7.066680429,-7.066680432
123,0.03399,9.805243333,-10.61385726,-10.61385727
124,0.034241944,9.806755,-10.98277411,-10.98277412
125,0.034494167,9.808268333,-8.93207167,-8.932071674
126,0.034748056,9.809791667,-14.26445965,-14.26445965
127,0.034998611,9.811295,-12.62895288,-12.62895288
128,0.035341944,9.813355,-11.26180266,-11.26180267
129,0.035673056,9.815341667,-12.28855805,-12.28855806
130,0.035922222,9.816836667,-5.806035245,-5.806035248
131,0.036171667,9.818333333,-6.141463594,-6.141463597
132,0.036420278,9.819825,-5.978434023,-5.978434026
133,0.03667,9.821323333,-8.394347342,-8.394347346
134,0.037004167,9.823328333,-10.78794907,-10.78794907
135,0.037331111,9.82529,-12.71182205,-12.71182206
136,0.037578056,9.826771667,-19.38364416,-19.38364417
137,0.037826389,9.828261667,-23.86959107,-23.86959108
138,0.038074167,9.829748333,-30.83685074,-30.83685075
139,0.038321667,9.831233333,-29.99315961,-29.99315963
140,0.038666944,9.833305,-29.32772622,-29.32772624
141,0.039001667,9.835313333,-26.70444921,-26.70444922
142,0.039251667,9.836813333,-29.71573282,-29.71573284
143,0.039499444,9.8383,-31.53393105,-31.53393106
144,0.039746944,9.839785,-32.92968857,-32.92968859
145,0.039994167,9.841268333,-29.46061408,-29.4606141
146,0.040336389,9.843321667,-25.72098644,-25.72098645
147,0.04067,9.845323333,-23.02752493,-23.02752494
148,0.0409175,9.846808333,-23.59030358,-23.5903036
149,0.041165556,9.848296667,-20.98115646,-20.98115648
150,0.041412222,9.849776667,-23.58445262,-23.58445264
151,0.041658889,9.851256667,-25.88189265,-25.88189267
152,0.042000278,9.853305,-28.07255158,-28.0725516
153,0.042336944,9.855325,-24.84985514,-24.84985515
154,0.042587222,9.856826667,-31.23182426,-31.23182428
155,0.042834722,9.858311667,-33.63214054,-33.63214056
156,0.043081389,9.859791667,-27.95798833,-27.95798835
157,0.043332778,9.8613,-25.75430488,-25.7543049
158,0.043668889,9.863316667,-23.23809789,-23.23809791
159,0.043996389,9.865281667,-18.83014622,-18.83014623
160,0.044243056,9.866761667,-18.35568731,-18.35568732
161,0.044489444,9.86824,-18.17608255,-18.17608256
162,0.044738889,9.869736667,-15.91332622,-15.91332623
163,0.044985,9.871213333,-17.74588589,-17.7458859
164,0.045325278,9.873255,-19.75717227,-19.75717228
165,0.04566,9.875263333,-12.81500996,-12.81500997
166,0.045908333,9.876753333,-8.956224277,-8.956224282
167,0.046158611,9.878255,-5.760784964,-5.760784968
168,0.046406667,9.879743333,-1.68887559,-1.688875591
169,0.046658611,9.881255,-0.444092411,-0.444092411
170,0.047000556,9.883306667,0.774025663,0.774025663
171,0.047332778,9.8853,2.006643818,2.00664382
172,0.047581389,9.886791667,7.387647229,7.387647234
173,0.047829167,9.888278333,8.297791821,8.297791826
174,0.048077778,9.88977,11.26488129,11.2648813
175,0.048330833,9.891288333,11.82697088,11.82697088
176,0.048670833,9.893328333,12.38931023,12.38931024
177,0.0490025,9.895318333,17.25548528,17.25548529
178,0.049251944,9.896815,19.08633828,19.08633829
179,0.049505833,9.898338333,21.8733301,21.87333012
180,0.049755278,9.899835,23.40212062,23.40212064
181,0.050005833,9.901338333,22.06473711,22.06473712
182,0.050338333,9.903333333,20.6553696,20.65536962
183,0.050664444,9.90529,22.05446895,22.05446897
184,0.050913056,9.906781667,18.16545622,18.16545623
185,0.051161389,9.908271667,19.4395456,19.43954562
186,0.051410278,9.909765,17.85141118,17.8514112
187,0.051660278,9.911265,20.10095945,20.10095947
188,0.052002222,9.913316667,22.68918433,22.68918435
189,0.052336667,9.915323333,26.67240723,26.67240725
190,0.052585,9.916813333,27.02241891,27.02241893
191,0.052834722,9.918311667,31.30117711,31.30117713
192,0.053082222,9.919796667,29.36014957,29.36014959
193,0.053331944,9.921295,30.9240938,30.92409382
194,0.05367,9.923323333,32.40287249,32.40287251
195,0.054003333,9.925323333,31.56810949,31.56810951
196,0.054248056,9.926791667,32.47490029,32.47490032
197,0.054493056,9.928261667,31.29794623,31.29794626
198,0.054738056,9.929731667,33.93254743,33.93254745
199,0.054986389,9.931221667,32.39040784,32.39040787
200,0.0553275,9.933268333,30.54360612,30.54360614
201,0.055658889,9.935256667,26.99161331,26.99161334
202,0.055907778,9.93675,26.16713467,26.1671347
203,0.056158611,9.938255,27.06324574,27.06324577
204,0.056405833,9.939738333,29.24851815,29.24851818
205,0.056655833,9.941238333,30.63120735,30.63120737
206,0.056998333,9.943293333,31.78926066,31.78926068
207,0.057333333,9.945303333,25.67947012,25.67947014
208,0.0575825,9.946798333,24.48275137,24.48275139
209,0.057828611,9.948275,25.58447564,25.58447567
210,0.058075278,9.949755,23.86339978,23.8633998
211,0.058326389,9.951261667,22.13881244,22.13881245
212,0.058670833,9.953328333,20.34580189,20.34580191
213,0.059000556,9.955306667,16.22964561,16.22964562
214,0.059249167,9.956798333,17.92065041,17.92065042
215,0.059499444,9.9583,14.82323163,14.82323165
216,0.059748889,9.959796667,10.77842202,10.77842202
217,0.059996389,9.961281667,9.837143486,9.837143494
218,0.060336667,9.963323333,9.277625632,9.27762564
219,0.060673056,9.965341667,7.067545231,7.067545237
220,0.060923333,9.966843333,6.057318756,6.057318761
221,0.061170833,9.968328333,4.612217717,4.612217721
222,0.0614175,9.969808333,7.699399342,7.699399349
223,0.061665,9.971293333,12.39628756,12.39628757
224,0.062001667,9.973313333,16.74716188,16.7471619
225,0.062334167,9.975308333,18.4167109,18.41671091
226,0.062580833,9.976788333,18.45393731,18.45393733
227,0.062829167,9.978278333,15.80770403,15.80770404
228,0.063079444,9.97978,14.8353273,14.83532732
229,0.063335556,9.981316667,13.50343526,13.50343527
230,0.063675278,9.983355,12.15614364,12.15614365
231,0.064005,9.985333333,21.82719644,21.82719646
232,0.064253611,9.986825,23.70628974,23.70628976
233,0.064504167,9.988328333,23.5038416,23.50384162
234,0.064751667,9.989813333,22.83248804,22.83248807
235,0.064998333,9.991293333,25.12795891,25.12795893
236,0.065333889,9.993306667,27.44394427,27.44394429
237,0.065666667,9.995303333,32.64506569,32.64506572
238,0.065914722,9.996791667,32.19814076,32.19814079
239,0.066162778,9.99828,32.29058531,32.29058534
240,0.066411944,9.999775,36.27090998,36.27091002
241,0.066658611,10,39.01433457,39.01433461
242,0.066998611,10,41.97024837,41.97024841
243,0.067332222,10,41.2798278,41.27982784
244,0.067580833,10,41.57524438,41.57524442
245,0.06783,10,43.35329508,43.35329513
246,0.068078611,10,41.40204541,41.40204545
247,0.0683275,10,37.75744585,37.75744589
248,0.068668889,10,34.01839261,34.01839265
249,0.069001667,10,34.64671069,34.64671072
250,0.06925,10,38.59458048,38.59458052
251,0.069497778,10,38.13044029,38.13044033
252,0.069751111,10,36.14723357,36.1472336
253,0.070001944,10,35.08809274,35.08809277
254,0.070338333,10,33.85485612,33.85485615
255,0.0706675,10,37.23211225,37.23211229
256,0.070919722,10,38.01658618,38.01658622
257,0.071169167,10,34.45061658,34.45061662
258,0.0714175,10,32.68036237,32.6803624
259,0.071669722,10,34.72086858,34.72086861
260,0.072003333,10,36.84436645,36.84436649
261,0.072332222,10,34.90799428,34.90799431
262,0.0725825,10,35.59312509,35.59312513
263,0.072831667,10,37.83152313,37.83152317
264,0.073080556,10,37.037679,37.03767904
265,0.073327222,10,37.91417123,37.91417127
266,0.0736725,10,38.39272066,38.3927207
267,0.074006944,10,39.33765393,39.33765397
268,0.074252222,10,35.87775299,35.87775302
269,0.0745025,10,35.78798057,35.78798061
270,0.074753611,10,32.70203758,32.70203761
271,0.075003889,10,26.57667252,26.57667255
272,0.075338333,10,20.7835461,20.78354612
273,0.075666667,10,18.4888863,18.48888632
274,0.075915833,10,13.12926259,13.1292626
275,0.076166111,10,9.573398649,9.573398659
276,0.076413889,10,10.54053048,10.54053049
277,0.076665833,10,7.756462945,7.756462953
278,0.077004722,10,4.88353192,4.883531926
279,0.077336667,10,0.180820008,0.180820008
280,0.077584444,10,-3.871958136,-3.87195814
281,0.077833611,10,-4.463007529,-4.463007534
282,0.0780825,10,-7.019984243,-7.019984252
283,0.078329722,10,-12.03663372,-12.03663373
284,0.0786725,10,-16.96875802,-16.96875803
285,0.079005278,10,-14.9956173,-14.99561732
286,0.079255833,10,-16.67661675,-16.67661677
287,0.079504722,10,-11.48138881,-11.48138883
288,0.079756389,10,-10.28953983,-10.28953984
289,0.080004722,10,-9.597959169,-9.59795918
290,0.080344722,10,-8.856303115,-8.856303126
291,0.0806775,10,-10.87174091,-10.87174092
292,0.080926667,10,-7.011666538,-7.011666546
293,0.081178056,10,-10.67214791,-10.67214792
294,0.0814275,10,-12.06205611,-12.06205612
295,0.081678056,10,-10.38646423,-10.38646424
296,0.082010278,10,-8.920258376,-8.920258386
297,0.082336667,10,-6.00603178,-6.006031787
298,0.082585,10,-5.144083899,-5.144083905
299,0.082837222,10,-3.542063436,-3.54206344
300,0.083084444,10,-2.833900764,-2.833900768
301,0.083334444,10,-5.343702983,-5.343702989
302,0.083674167,10,-7.766942551,-7.766942561
303,0.084005,10,-10.07158538,-10.0715854
304,0.084254722,10,-13.71878172,-13.71878174
305,0.084505,10,-15.9718075,-15.97180752
306,0.084755556,10,-15.86683872,-15.86683874
307,0.085003056,10,-14.62185646,-14.62185648
308,0.085335833,10,-12.66275518,-12.66275519
309,0.08566,10,-14.43633095,-14.43633097
310,0.085903333,10,-15.35401416,-15.35401418
311,0.086149722,10,-10.26885842,-10.26885843
312,0.086401111,10,-7.364961294,-7.364961304
313,0.0866475,10,-5.322688015,-5.322688022
314,0.086990556,10,-3.79630568,-3.796305685
315,0.087326389,10,-6.8477516,-6.847751609
316,0.087574444,10,-8.472459407,-8.472459418
317,0.087823889,10,-9.618971323,-9.618971335
318,0.088075,10,-11.79351802,-11.79351803
319,0.088321667,10,-16.50888674,-16.50888676
320,0.088660833,10,-21.21205418,-21.21205421
321,0.088993333,10,-24.11320082,-24.11320085
322,0.089244722,10,-25.13916701,-25.13916704
323,0.089495833,10,-21.5583155,-21.55831552
324,0.0897425,10,-19.5001902,-19.50019022
325,0.089991389,10,-17.98955339,-17.98955342
326,0.090335,10,-16.58321185,-16.58321187
327,0.090668889,10,-18.53669821,-18.53669823
328,0.090918611,10,-20.482098,-20.48209802
329,0.091168056,10,-21.95948431,-21.95948434
330,0.091415556,10,-27.19082161,-27.19082164
331,0.091668889,10,-28.32133033,-28.32133037
332,0.092008611,10,-29.36638904,-29.36638908
333,0.092340278,10,-33.45420221,-33.45420226
334,0.092588889,10,-36.08726074,-36.08726079
335,0.0928375,10,-40.15074484,-40.1507449
336,0.093084444,10,-41.90013044,-41.9001305
337,0.093334444,10,-45.58126629,-45.58126635
338,0.093668889,10,-49.12724544,-49.12724551
339,0.093997778,10,-53.8061535,-53.80615357
340,0.0942475,10,-55.2457879,-55.24578798
341,0.094496944,10,-58.32812828,-58.32812837
342,0.094747778,10,-59.80112206,-59.80112215
343,0.094995833,10,-56.56028241,-56.56028249
344,0.095336667,10,-53.80956589,-53.80956597
345,0.095668056,10,-53.35365317,-53.35365324
346,0.095916111,10,-53.29523273,-53.29523281
347,0.096161667,10,-52.15860842,-52.1586085
348,0.096412222,10,-52.81763865,-52.81763873
349,0.0966625,10,-51.26474,-51.26474008
350,0.097002222,10,-49.35144352,-49.3514436
351,0.097335556,10,-47.96722031,-47.96722038
352,0.097583611,10,-41.60324691,-41.60324697
353,0.097830833,10,-37.70925779,-37.70925785
354,0.098075278,10,-40.38685142,-40.38685148
355,0.098324444,10,-41.97921691,-41.97921698
356,0.098667222,10,-43.19325854,-43.19325861
357,0.098998889,10,-39.02462846,-39.02462851
358,0.099246667,10,-38.05919463,-38.05919469
359,0.099495278,10,-33.79210596,-33.79210601
360,0.099745278,10,-30.73577297,-30.73577302
361,0.099992222,10.00251333,-29.80791005,-29.8079101
362,0.100335556,10.00663333,-28.9392418,-28.93924184
363,0.100671111,10.01066,-29.97436964,-29.97436968
364,0.100920278,10.01365,-24.45924529,-24.45924532
365,0.101170833,10.01665667,-23.69501353,-23.69501357
366,0.101423056,10.01968333,-22.884338,-22.88433803
367,0.101674167,10.02269667,-25.67284772,-25.67284776
368,0.102008611,10.02671,-28.41603816,-28.4160382
369,0.102339444,10.03068,-25.96890764,-25.96890768
370,0.102587778,10.03366,-24.55958857,-24.55958861
371,0.102835556,10.03663333,-23.53623109,-23.53623113
372,0.103084167,10.03961667,-19.35136381,-19.35136384
373,0.103336667,10.04264667,-19.69408278,-19.69408281
374,0.103670556,10.04665333,-20.09293026,-20.09293029
375,0.103999722,10.05060333,-14.92580723,-14.92580725
376,0.104249444,10.0536,-4.046786482,-4.046786488
377,0.1044975,10.05657667,-3.592843853,-3.592843859
378,0.104749167,10.05959667,-0.980949145,-0.980949147
379,0.105,10.06260667,3.787680657,3.787680663
380,0.105339167,10.06667667,8.841860648,8.841860662
381,0.105670278,10.07065,12.06053392,12.06053394
382,0.1059175,10.07361667,13.35815607,13.3581561
383,0.106164444,10.07658,16.02809695,16.02809697
384,0.106410278,10.07953,12.61740491,12.61740493
385,0.106658611,10.08251,11.8953362,11.89533622
386,0.107005,10.08666667,10.70593147,10.70593149
387,0.107340278,10.09069,11.69449887,11.69449889
388,0.107591389,10.09370333,11.33421567,11.33421569
389,0.107841111,10.0967,11.37723494,11.37723496
390,0.108091667,10.09970667,13.90389897,13.903899
391,0.1083425,10.10271667,11.71192722,11.71192724
392,0.108675556,10.10671333,9.691816508,9.691816525
393,0.109001667,10.11062667,4.560395251,4.560395258
394,0.1092475,10.11357667,3.900048391,3.900048398
395,0.109494167,10.11653667,-0.292963205,-0.292963206
396,0.109744722,10.11954333,-1.670629218,-1.67062922
397,0.109993056,10.12252333,-0.81187639,-0.811876392
398,0.110335556,10.12663333,0.120403711,0.120403711
399,0.110673889,10.13069333,-2.561739482,-2.561739486
400,0.110922222,10.13367333,-0.837067394,-0.837067395
401,0.111167778,10.13662,-0.501542568,-0.501542568
402,0.111416389,10.13960333,-0.776284317,-0.776284318
403,0.111666667,10.14260667,-1.404875482,-1.404875484
404,0.112000556,10.14661333,-1.894571549,-1.894571553
405,0.112330556,10.15057333,1.593537692,1.593537695
406,0.112578056,10.15354333,2.198551625,2.198551629
407,0.112824444,10.1565,8.62948164,8.629481655
