Meas,Time,Temperature,Vmax
1,1.383550556,9.602606667,-12.43040584
2,1.383887778,9.606653333,-11.75628216
3,1.384219722,9.610636667,-15.93012438
4,1.384466389,9.613596667,-17.26298834
5,1.384713056,9.616556667,-14.61956152
6,1.384957778,9.619493333,-15.21304469
7,1.385205833,9.62247,-11.14722818
8,1.385545278,9.626543333,-7.147349365
9,1.385876111,9.630513333,-8.968314952
10,1.386124722,9.633496667,-2.906235594
11,1.3863725,9.63647,-1.776610253
12,1.386625556,9.639506667,0.12401667
13,1.386878056,9.642536667,-1.415930047
14,1.387219444,9.646633333,-2.897665403
15,1.387552222,9.650626667,-1.796889974
16,1.387798889,9.653586667,-5.006621853
17,1.388049167,9.65659,-4.607353686
18,1.388296944,9.659563333,-8.97994989
19,1.388544444,9.662533333,-9.891568871
20,1.388886389,9.666636667,-10.65081362
21,1.3892225,9.67067,-5.541057699
22,1.389472778,9.673673333,-8.497200571
23,1.389719722,9.676636667,-13.40229905
24,1.389968889,9.679626667,-20.43658224
25,1.39022,9.68264,-19.92573968
26,1.390554444,9.686653333,-19.64830226
27,1.390878056,9.690536667,-20.75090641
28,1.391125833,9.69351,-23.4159122
29,1.391371667,9.69646,-21.27013598
30,1.39162,9.69944,-20.98861992
31,1.3918675,9.70241,-21.91669428
32,1.392205556,9.706466667,-22.8080592
33,1.392536667,9.71044,-21.336806
34,1.392786111,9.713433333,-23.66779529
35,1.393035556,9.716426667,-24.16396474
36,1.393285833,9.71943,-24.50412859
37,1.393535278,9.722423333,-19.02474298
38,1.393876389,9.726516667,-13.41344003
39,1.394215833,9.73059,-7.157721461
40,1.394467222,9.733606667,-6.65642666
41,1.394720556,9.736646667,-11.38524065
42,1.394966944,9.739603333,-9.792169211
43,1.395215,9.74258,-10.25646467
44,1.395551667,9.74662,-10.57155618
45,1.395880278,9.750563333,-8.632495098
46,1.396126667,9.75352,-7.482243437
47,1.396373333,9.75648,-6.916705397
48,1.396627222,9.759526667,-6.330453303
49,1.3968775,9.76253,-9.890125372
50,1.397218611,9.766623333,-13.55422068
51,1.397554167,9.77065,-12.9177789
52,1.397804444,9.773653333,-14.52939552
53,1.398051944,9.776623333,-12.97757899
54,1.398303333,9.77964,-10.18472357
55,1.398553611,9.782643333,-12.688394
56,1.398888056,9.786656667,-15.26847177
57,1.399210556,9.790526667,-10.88875437
58,1.399456389,9.793476667,-12.64279843
59,1.399702222,9.796426667,-14.02432169
60,1.399950833,9.79941,-15.09494233
61,1.400203889,9.8,-19.12501264
62,1.400545556,9.8,-23.04193952
63,1.400878889,9.8,-20.67836435
64,1.401127778,9.8,-18.01652403
65,1.401376111,9.8,-16.38097354
66,1.401629167,9.8,-17.758655
67,1.401880556,9.8,-17.82723854
68,1.402220556,9.8,-17.37278134
69,1.402551944,9.8,-15.48687064
70,1.402799722,9.8,-14.34400857
71,1.403046389,9.8,-11.43591784
72,1.403295278,9.8,-14.13383104
73,1.403541667,9.8,-12.03539726
74,1.403880833,9.8,-9.985823247
75,1.4042125,9.8,-9.439090324
76,1.404461944,9.8,-8.838841588
77,1.404713889,9.8,-12.11379974
78,1.404963611,9.8,-10.83349264
79,1.405214167,9.8,-10.84704072
80,1.405554722,9.8,-11.02637712
81,1.405883611,9.8,-10.81523931
82,1.406133889,9.8,-13.58782837
83,1.406383611,9.8,-13.59549321
84,1.406631111,9.8,-15.41652367
85,1.406878611,9.8,-14.26847119
86,1.407224722,9.8,-13.15600639
87,1.407558611,9.8,-13.06582695
88,1.407806389,9.8,-12.04502412
89,1.408052222,9.8,-11.84603302
90,1.408303333,9.8,-13.36869128
91,1.408552778,9.8,-13.53097319
92,1.4088925,9.8,-13.78304825
93,1.409226944,9.8,-14.37335506
94,1.409474444,9.8,-12.97486067
95,1.409720556,9.8,-15.43251602
96,1.409968056,9.8,-20.74929151
97,1.410216667,9.8,-20.59856554
98,1.410548333,9.8,-20.49863689
99,1.410873333,9.8,-18.82956855
100,1.411118333,9.8,-20.69567052
101,1.411368889,9.8,-23.29368399
102,1.41162,9.8,-21.60948858
103,1.411866667,9.8,-19.78686463
104,1.412201389,9.8,-17.53912701
105,1.412533056,9.8,-17.88296319
106,1.412783333,9.8,-19.21972889
107,1.413030833,9.8,-19.38856392
108,1.413280278,9.8,-18.96262615
109,1.413530833,9.8,-20.83578478
110,1.4138725,9.8,-23.21175601
111,1.414205278,9.8,-20.12361158
112,1.414449722,9.8,-21.09689006
113,1.414698611,9.8,-24.71709193
114,1.414947778,9.8,-22.71330834
115,1.4151975,9.8,-17.78638844
116,1.4155375,9.8,-12.53282721
117,1.415870556,9.8,-10.85547024
118,1.416119444,9.8,-10.6918663
119,1.416368611,9.8,-14.1639742
120,1.416618333,9.8,-6.222223564
121,1.416867778,9.801206667,-6.77011944
122,1.4172075,9.803245,-7.066680429
123,1.417540556,9.805243333,-10.61385726
124,1.4177925,9.806755,-10.98277411
125,1.418044722,9.808268333,-8.93207167
126,1.418298611,9.809791667,-14.26445965
127,1.418549167,9.811295,-12.62895288
128,1.4188925,9.813355,-11.26180266
129,1.419223611,9.815341667,-12.28855805
130,1.419472778,9.816836667,-5.806035245
131,1.419722222,9.818333333,-6.141463594
132,1.419970833,9.819825,-5.978434023
133,1.420220556,9.821323333,-8.394347342
134,1.420554722,9.823328333,-10.78794907
135,1.420881667,9.82529,-12.71182205
136,1.421128611,9.826771667,-19.38364416
137,1.421376944,9.828261667,-23.86959107
138,1.421624722,9.829748333,-30.83685074
139,1.421872222,9.831233333,-29.99315961
140,1.4222175,9.833305,-29.32772622
141,1.422552222,9.835313333,-26.70444921
142,1.422802222,9.836813333,-29.71573282
143,1.42305,9.8383,-31.53393105
144,1.4232975,9.839785,-32.92968857
145,1.423544722,9.841268333,-29.46061408
146,1.423886944,9.843321667,-25.72098644
147,1.424220556,9.845323333,-23.02752493
148,1.424468056,9.846808333,-23.59030358
149,1.424716111,9.848296667,-20.98115646
150,1.424962778,9.849776667,-23.58445262
151,1.425209444,9.851256667,-25.88189265
152,1.425550833,9.853305,-28.07255158
153,1.4258875,9.855325,-24.84985514
154,1.426137778,9.856826667,-31.23182426
155,1.426385278,9.858311667,-33.63214054
156,1.426631944,9.859791667,-27.95798833
157,1.426883333,9.8613,-25.75430488
158,1.427219444,9.863316667,-23.23809789
159,1.427546944,9.865281667,-18.83014622
160,1.427793611,9.866761667,-18.35568731
161,1.42804,9.86824,-18.17608255
162,1.428289444,9.869736667,-15.91332622
163,1.428535556,9.871213333,-17.74588589
164,1.428875833,9.873255,-19.75717227
165,1.429210556,9.875263333,-12.81500996
166,1.429458889,9.876753333,-8.956224277
167,1.429709167,9.878255,-5.760784964
168,1.429957222,9.879743333,-1.68887559
169,1.430209167,9.881255,-0.444092411
170,1.430551111,9.883306667,0.774025663
171,1.430883333,9.8853,2.006643818
172,1.431131944,9.886791667,7.387647229
173,1.431379722,9.888278333,8.297791821
174,1.431628333,9.88977,11.26488129
175,1.431881389,9.891288333,11.82697088
176,1.432221389,9.893328333,12.38931023
177,1.432553056,9.895318333,17.25548528
178,1.4328025,9.896815,19.08633828
179,1.433056389,9.898338333,21.8733301
180,1.433305833,9.899835,23.40212062
181,1.433556389,9.901338333,22.06473711
182,1.433888889,9.903333333,20.6553696
183,1.434215,9.90529,22.05446895
184,1.434463611,9.906781667,18.16545622
185,1.434711944,9.908271667,19.4395456
186,1.434960833,9.909765,17.85141118
187,1.435210833,9.911265,20.10095945
188,1.435552778,9.913316667,22.68918433
189,1.435887222,9.915323333,26.67240723
190,1.436135556,9.916813333,27.02241891
191,1.436385278,9.918311667,31.30117711
192,1.436632778,9.919796667,29.36014957
193,1.4368825,9.921295,30.9240938
194,1.437220556,9.923323333,32.40287249
195,1.437553889,9.925323333,31.56810949
196,1.437798611,9.926791667,32.47490029
197,1.438043611,9.928261667,31.29794623
198,1.438288611,9.929731667,33.93254743
199,1.438536944,9.931221667,32.39040784
200,1.438878056,9.933268333,30.54360612
201,1.439209444,9.935256667,26.99161331
202,1.439458333,9.93675,26.16713467
203,1.439709167,9.938255,27.06324574
204,1.439956389,9.939738333,29.24851815
205,1.440206389,9.941238333,30.63120735
206,1.440548889,9.943293333,31.78926066
207,1.440883889,9.945303333,25.67947012
208,1.441133056,9.946798333,24.48275137
209,1.441379167,9.948275,25.58447564
210,1.441625833,9.949755,23.86339978
211,1.441876944,9.951261667,22.13881244
212,1.442221389,9.953328333,20.34580189
213,1.442551111,9.955306667,16.22964561
214,1.442799722,9.956798333,17.92065041
215,1.44305,9.9583,14.82323163
216,1.443299444,9.959796667,10.77842202
217,1.443546944,9.961281667,9.837143486
218,1.443887222,9.963323333,9.277625632
219,1.444223611,9.965341667,7.067545231
220,1.444473889,9.966843333,6.057318756
221,1.444721389,9.968328333,4.612217717
222,1.444968056,9.969808333,7.699399342
223,1.445215556,9.971293333,12.39628756
224,1.445552222,9.973313333,16.74716188
225,1.445884722,9.975308333,18.4167109
226,1.446131389,9.976788333,18.45393731
227,1.446379722,9.978278333,15.80770403
228,1.44663,9.97978,14.8353273
229,1.446886111,9.981316667,13.50343526
230,1.447225833,9.983355,12.15614364
231,1.447555556,9.985333333,21.82719644
232,1.447804167,9.986825,23.70628974
233,1.448054722,9.988328333,23.5038416
234,1.448302222,9.989813333,22.83248804
235,1.448548889,9.991293333,25.12795891
236,1.448884444,9.993306667,27.44394427
237,1.449217222,9.995303333,32.64506569
238,1.449465278,9.996791667,32.19814076
239,1.449713333,9.99828,32.29058531
240,1.4499625,9.999775,36.27090998
241,1.450209167,10,39.01433457
242,1.450549167,10,41.97024837
243,1.450882778,10,41.2798278
244,1.451131389,10,41.57524438
245,1.451380556,10,43.35329508
246,1.451629167,10,41.40204541
247,1.451878056,10,37.75744585
248,1.452219444,10,34.01839261
249,1.452552222,10,34.64671069
250,1.452800556,10,38.59458048
251,1.453048333,10,38.13044029
252,1.453301667,10,36.14723357
253,1.4535525,10,35.08809274
254,1.453888889,10,33.85485612
255,1.454218056,10,37.23211225
256,1.454470278,10,38.01658618
257,1.454719722,10,34.45061658
258,1.454968056,10,32.68036237
259,1.455220278,10,34.72086858
260,1.455553889,10,36.84436645
261,1.455882778,10,34.90799428
262,1.456133056,10,35.59312509
263,1.456382222,10,37.83152313
264,1.456631111,10,37.037679
265,1.456877778,10,37.91417123
266,1.457223056,10,38.39272066
267,1.4575575,10,39.33765393
268,1.457802778,10,35.87775299
269,1.458053056,10,35.78798057
270,1.458304167,10,32.70203758
271,1.458554444,10,26.57667252
272,1.458888889,10,20.7835461
273,1.459217222,10,18.4888863
274,1.459466389,10,13.12926259
275,1.459716667,10,9.573398649
276,1.459964444,10,10.54053048
277,1.460216389,10,7.756462945
278,1.460555278,10,4.88353192
279,1.460887222,10,0.180820008
280,1.461135,10,-3.871958136
281,1.461384167,10,-4.463007529
282,1.461633056,10,-7.019984243
283,1.461880278,10,-12.03663372
284,1.462223056,10,-16.96875802
285,1.462555833,10,-14.9956173
286,1.462806389,10,-16.67661675
287,1.463055278,10,-11.48138881
288,1.463306944,10,-10.28953983
289,1.463555278,10,-9.597959169
290,1.463895278,10,-8.856303115
291,1.464228056,10,-10.87174091
292,1.464477222,10,-7.011666538
293,1.464728611,10,-10.67214791
294,1.464978056,10,-12.06205611
295,1.465228611,10,-10.38646423
296,1.465560833,10,-8.920258376
297,1.465887222,10,-6.00603178
298,1.466135556,10,-5.144083899
299,1.466387778,10,-3.542063436
300,1.466635,10,-2.833900764
301,1.466885,10,-5.343702983
302,1.467224722,10,-7.766942551
303,1.467555556,10,-10.07158538
304,1.467805278,10,-13.71878172
305,1.468055556,10,-15.9718075
306,1.468306111,10,-15.86683872
307,1.468553611,10,-14.62185646
308,1.468886389,10,-12.66275518
309,1.469210556,10,-14.43633095
310,1.469453889,10,-15.35401416
311,1.469700278,10,-10.26885842
312,1.469951667,10,-7.364961294
313,1.470198056,10,-5.322688015
314,1.470541111,10,-3.79630568
315,1.470876944,10,-6.8477516
316,1.471125,10,-8.472459407
317,1.471374444,10,-9.618971323
318,1.471625556,10,-11.79351802
319,1.471872222,10,-16.50888674
320,1.472211389,10,-21.21205418
321,1.472543889,10,-24.11320082
322,1.472795278,10,-25.13916701
323,1.473046389,10,-21.5583155
324,1.473293056,10,-19.5001902
325,1.473541944,10,-17.98955339
326,1.473885556,10,-16.58321185
327,1.474219444,10,-18.53669821
328,1.474469167,10,-20.482098
329,1.474718611,10,-21.95948431
330,1.474966111,10,-27.19082161
331,1.475219444,10,-28.32133033
332,1.475559167,10,-29.36638904
333,1.475890833,10,-33.45420221
334,1.476139444,10,-36.08726074
335,1.476388056,10,-40.15074484
336,1.476635,10,-41.90013044
337,1.476885,10,-45.58126629
338,1.477219444,10,-49.12724544
339,1.477548333,10,-53.8061535
340,1.477798056,10,-55.2457879
341,1.4780475,10,-58.32812828
342,1.478298333,10,-59.80112206
343,1.478546389,10,-56.56028241
344,1.478887222,10,-53.80956589
345,1.479218611,10,-53.35365317
346,1.479466667,10,-53.29523273
347,1.479712222,10,-52.15860842
348,1.479962778,10,-52.81763865
349,1.480213056,10,-51.26474
350,1.480552778,10,-49.35144352
351,1.480886111,10,-47.96722031
352,1.481134167,10,-41.60324691
353,1.481381389,10,-37.70925779
354,1.481625833,10,-40.38685142
355,1.481875,10,-41.97921691
356,1.482217778,10,-43.19325854
357,1.482549444,10,-39.02462846
358,1.482797222,10,-38.05919463
359,1.483045833,10,-33.79210596
360,1.483295833,10,-30.73577297
361,1.483542778,10.00251333,-29.80791005
362,1.483886111,10.00663333,-28.9392418
363,1.484221667,10.01066,-29.97436964
364,1.484470833,10.01365,-24.45924529
365,1.484721389,10.01665667,-23.69501353
366,1.484973611,10.01968333,-22.884338
367,1.485224722,10.02269667,-25.67284772
368,1.485559167,10.02671,-28.41603816
369,1.48589,10.03068,-25.96890764
370,1.486138333,10.03366,-24.55958857
371,1.486386111,10.03663333,-23.53623109
372,1.486634722,10.03961667,-19.35136381
373,1.486887222,10.04264667,-19.69408278
374,1.487221111,10.04665333,-20.09293026
375,1.487550278,10.05060333,-14.92580723
376,1.4878,10.0536,-4.046786482
377,1.488048056,10.05657667,-3.592843853
378,1.488299722,10.05959667,-0.980949145
379,1.488550556,10.06260667,3.787680657
380,1.488889722,10.06667667,8.841860648
381,1.489220833,10.07065,12.06053392
382,1.489468056,10.07361667,13.35815607
383,1.489715,10.07658,16.02809695
384,1.489960833,10.07953,12.61740491
385,1.490209167,10.08251,11.8953362
386,1.490555556,10.08666667,10.70593147
387,1.490890833,10.09069,11.69449887
388,1.491141944,10.09370333,11.33421567
389,1.491391667,10.0967,11.37723494
390,1.491642222,10.09970667,13.90389897
391,1.491893056,10.10271667,11.71192722
392,1.492226111,10.10671333,9.691816508
393,1.492552222,10.11062667,4.560395251
394,1.492798056,10.11357667,3.900048391
395,1.493044722,10.11653667,-0.292963205
396,1.493295278,10.11954333,-1.670629218
397,1.493543611,10.12252333,-0.81187639
398,1.493886111,10.12663333,0.120403711
399,1.494224444,10.13069333,-2.561739482
400,1.494472778,10.13367333,-0.837067394
401,1.494718333,10.13662,-0.501542568
402,1.494966944,10.13960333,-0.776284317
403,1.495217222,10.14260667,-1.404875482
404,1.495551111,10.14661333,-1.894571549
405,1.495881111,10.15057333,1.593537692
406,1.496128611,10.15354333,2.198551625
407,1.496375,10.1565,8.62948164
408,1.496622778,10.15947333,10.54635749
409,1.496875,10.1625,7.542336627
410,1.497213056,10.16655667,4.683340382
411,1.497545833,10.17055,1.180636831
412,1.497795833,10.17355,2.428435506
413,1.498043056,10.17651667,-1.176297214
414,1.4982925,10.17951,0.138947362
415,1.498539167,10.18247,2.950603874
416,1.498885,10.18662,5.548812809
417,1.499223333,10.19068,8.436859062
418,1.499471111,10.19365333,10.50969111
419,1.499720556,10.19664667,10.59623033
420,1.499970833,10.19965,8.69063248
421,1.500220278,10.2,3.804023116
422,1.500554722,10.2,-1.182623812
423,1.500881667,10.2,-5.757673352
424,1.501130278,10.2,-6.487070105
425,1.50138,10.2,-4.499224247
426,1.501628333,10.2,-3.813926278
427,1.501875833,10.2,-4.891137108
428,1.502219444,10.2,-5.616798103
429,1.502552778,10.2,-6.864915144
430,1.502804167,10.2,-3.750256337
431,1.5030575,10.2,2.230562371
432,1.503307778,10.2,11.35256288
433,1.503555556,10.2,13.82916583
434,1.503888056,10.2,15.84638426
435,1.504216667,10.2,16.63710236
436,1.504466111,10.2,17.61167881
437,1.504718889,10.2,17.43576281
438,1.504967778,10.2,15.04237817
439,1.505212222,10.2,15.02177482
440,1.505554444,10.2,15.27335826
441,1.505889167,10.2,17.38189501
442,1.506136944,10.2,15.08233855
443,1.506388611,10.2,19.8498101
444,1.506639167,10.2,24.46428857
445,1.506887222,10.2,21.37543788
446,1.507218611,10.2,18.49928745
447,1.507547778,10.2,19.83321033
448,1.507796111,10.2,16.57847175
449,1.5080425,10.2,16.11981402
450,1.508293056,10.2,12.05030705
451,1.508544722,10.2,10.9502511
452,1.508884444,10.2,9.589362607
453,1.509217778,10.2,8.452289612
454,1.509461944,10.2,4.520718082
455,1.509711389,10.2,0.577971381
456,1.509964167,10.2,-1.185245173
457,1.510211111,10.2,-4.459525602
458,1.510554722,10.2,-7.799825735
459,1.510888333,10.2,-7.235943892
460,1.511136111,10.2,-8.607393746
461,1.511387778,10.2,-11.63301395
462,1.511641944,10.2,-13.03459578
463,1.511894167,10.2,-15.17729796
464,1.512227778,10.2,-17.60034556
465,1.512550278,10.2,-20.43912727
466,1.512796111,10.2,-18.63081119
467,1.513043056,10.2,-18.8835236
468,1.513295,10.2,-17.51115863
469,1.513544444,10.2,-19.64757333
470,1.513888889,10.2,-21.50837181
471,1.514223056,10.2,-26.65981713
472,1.514469444,10.2,-17.338286
473,1.514719444,10.2,-12.98695516
474,1.51497,10.2,-11.33735526
475,1.5152175,10.2,-14.53958845
476,1.515551111,10.2,-17.34578739
477,1.515881667,10.2,-14.43479588
478,1.516130278,10.2,-15.55052346
479,1.516378611,10.2,-10.8678008
480,1.516631944,10.2,-9.153202564
481,1.516886111,10.2,-9.907648012
482,1.517221389,10.2,-10.89864411
483,1.517553056,10.2,-12.13000667
484,1.517806944,10.2,-6.502718032
485,1.518055556,10.2,-6.943778515
486,1.518303333,10.2,-5.127930376
487,1.518552778,10.2,-6.277087839
488,1.518891944,10.2,-7.369323013
489,1.519223333,10.2,-8.375109534
490,1.5194725,10.2,-8.104151718
491,1.519724722,10.2,-3.403489635
492,1.519974167,10.2,3.779736066
493,1.520224722,10.2,0.02094842
494,1.5205575,10.2,-3.756353808
495,1.520886111,10.2,-4.035900835
496,1.521133889,10.2,4.71082736
497,1.521380833,10.2,6.734410312
498,1.521628333,10.2,7.948228114
499,1.521875278,10.2,10.53408419
500,1.522215556,10.2,13.33238637
501,1.522550278,10.2,15.77546877
502,1.522797778,10.2,13.20160951
503,1.523046389,10.2,15.77291145
504,1.523293889,10.2,12.59529242
505,1.523546389,10.2,9.560415173
506,1.523886944,10.2,6.282485847
507,1.52422,10.2,7.81635578
508,1.524466389,10.2,9.023690896
509,1.524715556,10.2,8.819611771
510,1.524966111,10.2,7.687488401
511,1.525213889,10.2,8.113944181
512,1.525552778,10.2,8.454193131
513,1.525883611,10.2,5.221467445
514,1.526132222,10.2,6.248919467
515,1.526379722,10.2,2.993577055
516,1.526628333,10.2,5.636445887
517,1.526879722,10.2,4.190233038
518,1.527221111,10.2,2.907249926
519,1.527553333,10.2,2.531274684
520,1.527803333,10.2,3.128789108
521,1.528048333,10.2,0.209796074
522,1.528296944,10.2,-3.182749233
523,1.528547222,10.2,-5.245296847
524,1.528887778,10.2,-7.167588478
525,1.529217778,10.2,-7.773875652
526,1.529464722,10.2,-7.764908155
527,1.529716667,10.2,-5.782310312
528,1.529968056,10.2,-1.750377609
529,1.530219444,10.2,-5.460597886
530,1.530551111,10.2,-9.345276335
531,1.5308775,10.2,-13.32789537
532,1.531123889,10.2,-10.96320139
533,1.53137,10.2,-11.04526933
534,1.531617222,10.2,-11.86778086
535,1.5318675,10.2,-7.899318927
536,1.532206111,10.2,-4.071387288
537,1.5325375,10.2,-7.624636514
538,1.532786111,10.2,-7.796412903
539,1.533031667,10.2,-12.72409489
540,1.533279722,10.2,-17.88298204
541,1.533529722,10.20117833,-19.22263819
542,1.533865278,10.20319167,-20.49860981
543,1.5341925,10.205155,-23.64713052
544,1.534437222,10.20662333,-26.33472883
545,1.534688611,10.20813167,-26.45419273
546,1.534939722,10.20963833,-27.51293837
547,1.535188056,10.21112833,-25.10433252
548,1.535520556,10.21312333,-22.57674743
549,1.5358525,10.215115,-25.72476068
550,1.536103056,10.21661833,-21.25320339
551,1.536356111,10.21813667,-20.93812507
