Meas,Time,Temperature,Vmax.og,Vmax.inst
1,0,9.70434,-8.072913987,-8.072913987
2,0.000328334,9.71222,-11.39198323,-11.39198323
3,0.000575,9.71814,-7.364577516,-7.364577516
4,0.0008225,9.72408,-9.144291069,-9.144291069
5,0.001071111,9.730046667,-8.136964349,-8.136964349
6,0.001316667,9.73594,-10.90009559,-10.90009559
7,0.001648611,9.743906667,-13.97149467,-13.97149467
8,0.001973056,9.751693333,-16.02079734,-16.02079734
9,0.0022225,9.75768,-20.80752158,-20.80752158
10,0.002473611,9.763706667,-23.06527944,-23.06527944
11,0.002720556,9.769633333,-21.34471501,-21.34471501
12,0.002966945,9.775546667,-20.98820634,-20.98820634
13,0.003296111,9.783446667,-20.82574634,-20.82574634
14,0.003620556,9.791233333,-26.06009914,-26.06009914
15,0.003866389,9.797133333,-17.91510035,-17.91510035
16,0.004111945,9.803026667,-17.91424225,-17.91424225
17,0.004357778,9.808926667,-18.8490796,-18.8490796
18,0.004607223,9.814913333,-16.49332291,-16.49332291
19,0.004944445,9.823006667,-13.88901866,-13.88901866
20,0.005271667,9.83086,-12.2902971,-12.2902971
21,0.005517223,9.836753333,-13.00074054,-13.00074054
22,0.005763889,9.842673333,-10.08091586,-10.08091586
23,0.00601,9.84858,-12.24917211,-12.24917211
24,0.006255834,9.85448,-8.151567163,-8.151567164
25,0.0065925,9.86256,-4.136948338,-4.136948338
26,0.006921667,9.87046,-2.221788056,-2.221788056
27,0.0071675,9.87636,-1.003458038,-1.003458038
28,0.007413611,9.882266667,-0.492004976,-0.492004976
29,0.007660834,9.8882,-0.873011752,-0.873011752
30,0.007906667,9.8941,2.546988636,2.546988636
31,0.008235556,9.901993333,5.951976011,5.951976012
32,0.008562778,9.909846667,4.131692205,4.131692205
33,0.008810556,9.915793333,2.678150359,2.678150359
34,0.009059167,9.92176,1.567753229,1.567753229
35,0.009306389,9.927693333,4.887488899,4.8874889
36,0.009551389,9.933573333,2.370124637,2.370124637
37,0.009886945,9.941626667,0.054845765,0.054845765
38,0.010219445,9.949606667,1.157452092,1.157452092
39,0.010466389,9.955533333,0.436751618,0.436751618
40,0.010713889,9.961473333,3.227229684,3.227229684
41,0.010961667,9.96742,5.327176486,5.327176487
42,0.011209723,9.973373333,9.583917078,9.58391708
43,0.011539723,9.981293333,14.1579058,14.1579058
44,0.011864167,9.98908,15.8847878,15.8847878
45,0.012110278,9.994986667,18.14539608,18.14539608
46,0.0123575,10.00092,17.56971899,17.56971899
47,0.012604445,10.00684667,22.89595061,22.89595061
48,0.012851945,10.01278667,23.53728729,23.53728729
49,0.013179167,10.02064,24.06149872,24.06149872
50,0.013500556,10.02835333,24.27814759,24.27814759
51,0.013745278,10.03422667,27.0313487,27.03134871
52,0.013993334,10.04018,23.96121317,23.96121317
53,0.014242778,10.04616667,21.62338915,21.62338915
54,0.0144875,10.05204,26.34670557,26.34670558
55,0.014820278,10.06002667,30.86273828,30.86273829
56,0.01515,10.06794,33.96109768,33.96109769
57,0.0153975,10.07388,31.27727637,31.27727638
58,0.015646389,10.07985333,30.97341518,30.97341519
59,0.015891945,10.08574667,27.08071946,27.08071947
60,0.016138889,10.09167333,25.81900311,25.81900312
61,0.016473889,10.09971333,24.52408126,24.52408127
62,0.016802223,10.1,18.90039097,18.90039097
63,0.017050556,10.1,17.56758136,17.56758136
64,0.0172975,10.1,13.91509961,13.91509961
65,0.017543056,10.1,9.939830213,9.939830216
66,0.017788889,10.1,8.004521444,8.004521446
67,0.018123056,10.1,6.120436272,6.120436274
68,0.018451389,10.1,7.21928798,7.219287982
69,0.018697223,10.1,7.53421688,7.534216882
70,0.018945,10.1,6.556287673,6.556287675
71,0.019196667,10.1,10.47979875,10.47979875
72,0.019443611,10.1,10.33710731,10.33710731
73,0.01978,10.1,9.722172401,9.722172404
74,0.020110556,10.1,9.048466809,9.048466812
75,0.0203575,10.1,13.99890299,13.99890299
76,0.020603056,10.1,16.82579043,16.82579044
77,0.020855278,10.1,17.98269351,17.98269352
78,0.021105556,10.1,21.16661093,21.16661094
79,0.021437223,10.1,25.08499207,25.08499208
80,0.021762778,10.1,31.39798748,31.39798749
81,0.022009445,10.1,33.13345318,33.13345319
82,0.022257223,10.1,36.54225463,36.54225464
83,0.022507223,10.1,41.63422102,41.63422103
84,0.022753889,10.1,40.79507038,40.79507039
85,0.023086667,10.1,39.78955258,39.78955259
86,0.023413889,10.1,40.46220321,40.46220322
87,0.023661389,10.1,38.10209476,38.10209477
88,0.023906389,10.1,36.35796867,36.35796868
89,0.024153056,10.1,35.82841719,35.8284172
90,0.024397223,10.1,35.67763353,35.67763354
91,0.024734445,10.1,35.29005835,35.29005836
92,0.025063334,10.1,35.10789287,35.10789288
93,0.025309167,10.1,35.95706405,35.95706406
94,0.0255575,10.1,34.76450644,34.76450645
95,0.025804167,10.1,32.87720468,32.87720469
96,0.02605,10.1,32.36888887,32.36888888
97,0.026384445,10.1,31.70127002,31.70127003
98,0.026710556,10.1,25.68093951,25.68093952
99,0.026956389,10.1,24.66761163,24.66761164
100,0.027204167,10.1,22.05732299,22.057323
101,0.027450556,10.1,25.10382275,25.10382276
102,0.027695556,10.1,23.23756232,23.23756233
103,0.028023889,10.1,21.96665739,21.9666574
104,0.028347223,10.1,19.31118348,19.31118349
105,0.028594723,10.1,17.40518146,17.40518147
106,0.028840556,10.1,14.85548223,14.85548224
107,0.029086389,10.1,17.0557484,17.05574841
108,0.029332223,10.1,17.81475631,17.81475632
109,0.029667778,10.1,18.44505673,18.44505674
110,0.0299975,10.1,10.32068181,10.32068181
111,0.030247778,10.1,8.153797669,8.153797673
112,0.030496945,10.1,5.449043902,5.449043905
113,0.030745556,10.1,4.600637057,4.600637059
114,0.030996389,10.1,3.366029897,3.366029899
115,0.031331389,10.1,2.084069792,2.084069793
116,0.031655,10.1,-0.535804516,-0.535804516
117,0.031900834,10.1,-1.293814279,-1.29381428
118,0.032150278,10.1,0.976930752,0.976930752
119,0.032396667,10.1,-0.843287752,-0.843287752
120,0.032646389,10.1,-2.662553127,-2.662553128
121,0.032985278,10.1,-4.338290052,-4.338290054
122,0.033312223,10.09808333,-7.905657523,-7.905657527
123,0.033560834,10.0951,-3.68030097,-3.680300972
124,0.033809445,10.09211667,-3.047827567,-3.047827569
125,0.034058889,10.08912333,0.742866641,0.742866641
126,0.034306389,10.08615333,-2.346473693,-2.346473694
127,0.034640834,10.08214,-5.843903738,-5.843903741
128,0.034963334,10.07827,-4.735827767,-4.73582777
129,0.035207778,10.07533667,-9.017795042,-9.017795047
130,0.0354525,10.0724,-7.223039974,-7.223039978
131,0.035697223,10.06946333,-8.302389194,-8.302389199
132,0.035943056,10.06651333,-7.319879358,-7.319879362
133,0.036282223,10.06244333,-6.354993909,-6.354993913
134,0.036619167,10.0584,-10.5947784,-10.59477841
135,0.036866945,10.05542667,-11.24973703,-11.24973704
136,0.037115556,10.05244333,-13.74078756,-13.74078757
137,0.037363889,10.04946333,-15.15012543,-15.15012544
138,0.037609723,10.04651333,-13.68177777,-13.68177778
139,0.037944167,10.0425,-11.9330124,-11.93301241
140,0.038274167,10.03854,-10.02698904,-10.02698905
141,0.038521945,10.03556667,-6.126235009,-6.126235013
142,0.038766667,10.03263,-3.478415475,-3.478415477
143,0.0390125,10.02968,-4.43461567,-4.434615673
144,0.039258889,10.02672333,-2.32971388,-2.329713881
145,0.039592778,10.02271667,-0.285861521,-0.285861521
146,0.03992,10.01879,4.137704323,4.137704326
147,0.0401675,10.01582,4.640046975,4.640046978
148,0.040412223,10.01288333,4.260593464,4.260593467
149,0.040658889,10.00992333,4.861575956,4.861575959
150,0.040905,10.00697,7.116039931,7.116039936
151,0.0412375,10.00298,9.287907501,9.287907507
152,0.041560556,9.999103333,9.562210123,9.562210129
153,0.041810278,9.996106667,12.5868069,12.58680691
154,0.042061667,9.99309,12.36065637,12.36065638
155,0.042309167,9.99012,11.51322423,11.51322424
156,0.042556667,9.98715,5.054006426,5.054006429
157,0.0428975,9.98306,-1.162893699,-1.1628937
158,0.043233056,9.979033333,0.688017022,0.688017022
159,0.043477778,9.976096667,-1.261155312,-1.261155313
160,0.043723889,9.973143333,-1.793199172,-1.793199173
161,0.043973056,9.970153333,-3.026284121,-3.026284123
162,0.044219723,9.967193333,-3.92952365,-3.929523653
163,0.044556111,9.963156667,-4.730050413,-4.730050416
164,0.044886945,9.959186667,-4.583260473,-4.583260476
165,0.045134445,9.956216667,-2.8206954,-2.820695402
166,0.045382223,9.953243333,-2.783304766,-2.783304768
167,0.045628889,9.950283333,1.386478689,1.38647869
168,0.045878056,9.947293333,0.535658059,0.535658059
169,0.046210834,9.9433,-0.745783277,-0.745783278
170,0.046536111,9.939396667,-0.922697519,-0.92269752
171,0.046782778,9.936436667,-1.486069087,-1.486069088
172,0.047026945,9.933506667,-9.591416588,-9.591416595
173,0.047274723,9.930533333,-13.10208662,-13.10208663
174,0.047523056,9.927553333,-13.46146259,-13.4614626
175,0.047851945,9.923606667,-13.49409339,-13.4940934
176,0.048176945,9.919706667,-12.34352002,-12.34352003
177,0.048423889,9.916743333,-16.99429634,-16.99429635
178,0.048668889,9.913803333,-16.781248,-16.78124801
179,0.0489175,9.91082,-12.95612756,-12.95612757
180,0.049165,9.90785,-11.06263523,-11.06263524
181,0.049501389,9.903813333,-9.106353757,-9.106353764
182,0.049830278,9.900266667,-10.4894707,-10.48947071
183,0.050078056,9.906213333,-11.534275,-11.53427501
184,0.050326667,9.91218,-16.76493807,-16.76493808
185,0.050574167,9.91812,-26.54274114,-26.54274116
186,0.050822223,9.924073333,-27.66609783,-27.66609785
187,0.051154445,9.932046667,-28.78900222,-28.78900224
188,0.051482223,9.939913333,-26.2962608,-26.29626082
189,0.05173,9.94586,-26.66065409,-26.66065411
190,0.051978611,9.951826667,-30.0237503,-30.02375032
191,0.052226111,9.957766667,-24.46491724,-24.46491726
192,0.052471667,9.96366,-22.94325504,-22.94325506
193,0.052798889,9.971513333,-22.00479791,-22.00479793
194,0.053123611,9.979306667,-21.88449046,-21.88449048
195,0.053371945,9.985266667,-16.95765374,-16.95765375
196,0.053616667,9.99114,-13.70927134,-13.70927135
197,0.0538625,9.99704,-9.582403595,-9.582403603
198,0.054108334,10.00294,-5.817627991,-5.817627996
199,0.054447223,10.01107333,-1.691228039,-1.69122804
200,0.054777223,10.01899333,2.261858682,2.261858684
201,0.055026667,10.02498,9.294298393,9.294298401
202,0.055273611,10.03090667,16.18307281,16.18307282
203,0.055523889,10.03691333,20.97830336,20.97830338
204,0.055775,10.04294,19.99389805,19.99389807
205,0.056109167,10.05096,19.38109059,19.38109061
206,0.0564375,10.05884,20.91077393,20.91077395
207,0.056681667,10.0647,17.77952132,17.77952134
208,0.056928056,10.07061333,20.26126849,20.26126851
209,0.057173056,10.07649333,17.85249038,17.8524904
210,0.057420556,10.08243333,13.64852668,13.64852669
211,0.057754445,10.09044667,9.357638609,9.357638618
212,0.058085,10.09838,9.632826655,9.632826664
213,0.058333611,10.10434667,9.277019641,9.27701965
214,0.058579445,10.11024667,9.835278084,9.835278093
215,0.058825834,10.11616,11.11020381,11.11020382
216,0.059076389,10.12217333,10.70047511,10.70047512
217,0.059411667,10.13022,10.42761135,10.42761136
218,0.059739723,10.13809333,7.166645502,7.166645509
219,0.0599875,10.14404,7.637691825,7.637691832
220,0.060232223,10.14991333,7.315723337,7.315723344
221,0.060475278,10.15574667,11.92572996,11.92572997
222,0.060721111,10.16164667,6.367179399,6.367179405
223,0.0610575,10.16972,0.602363925,0.602363926
224,0.061388056,10.17765333,-1.870507889,-1.870507891
225,0.061636667,10.18362,-2.54398195,-2.543981952
226,0.061880834,10.18948,-6.320335173,-6.320335179
227,0.062130278,10.19546667,-3.524240919,-3.524240922
228,0.062378334,10.20142,-4.62666928,-4.626669285
229,0.062710278,10.20938667,-5.530501477,-5.530501483
230,0.063036389,10.21721333,-14.38042553,-14.38042554
231,0.063283334,10.22314,-15.73447861,-15.73447863
232,0.063531667,10.2291,-18.25394105,-18.25394107
233,0.063783056,10.23513333,-18.91850203,-18.91850205
234,0.0640325,10.24112,-18.56065561,-18.56065563
235,0.064369445,10.24920667,-18.27580025,-18.27580027
236,0.064701111,10.25716667,-14.57192716,-14.57192718
237,0.064947778,10.26308667,-12.51782098,-12.51782099
238,0.065194167,10.269,-13.2058001,-13.20580011
239,0.065441667,10.27494,-16.42836104,-16.42836106
240,0.065688334,10.28086,-19.47737176,-19.47737178
241,0.066018889,10.28879333,-22.33012885,-22.33012887
242,0.066344167,10.2966,-23.42523924,-23.42523926
243,0.06659,10.298125,-20.6192002,-20.61920022
244,0.066838611,10.29365,-18.13785433,-18.13785435
245,0.067089167,10.28914,-16.4116727,-16.41167272
246,0.067336667,10.284685,-17.38815093,-17.38815095
247,0.067675834,10.27858,-18.67188249,-18.67188251
248,0.068007223,10.272615,-15.03603235,-15.03603237
249,0.068253334,10.268185,-15.5025202,-15.50252022
250,0.0685025,10.2637,-15.7390717,-15.73907172
251,0.068751111,10.259225,-18.45339004,-18.45339006
252,0.068997778,10.254785,-16.77199321,-16.77199323
253,0.069333056,10.24875,-14.55467535,-14.55467537
254,0.069663611,10.2428,-13.68278387,-13.68278389
255,0.069909723,10.23837,-14.76580407,-14.76580409
256,0.070155278,10.23395,-16.96887843,-16.96887845
257,0.070401389,10.22952,-14.17795921,-14.17795923
258,0.070646111,10.225115,-14.07562276,-14.07562278
259,0.070976667,10.219165,-14.02154341,-14.02154343
260,0.071305,10.213255,-9.588235052,-9.588235063
261,0.071553611,10.20878,-4.316472369,-4.316472374
262,0.071800278,10.20434,-6.165333243,-6.16533325
263,0.072048056,10.19988,-7.346063839,-7.346063848
264,0.0722975,10.19539,-7.6995418,-7.699541809
265,0.072627223,10.189455,-8.024453815,-8.024453824
266,0.072950834,10.18363,-3.231805581,-3.231805585
267,0.0732,10.179145,-1.210933344,-1.210933345
268,0.073445,10.174735,-2.276023556,-2.276023559
269,0.0736925,10.17028,-0.095969197,-0.095969197
270,0.07394,10.165825,-0.138154293,-0.138154293
271,0.074275834,10.15978,0.006018244,0.006018244
272,0.074604723,10.15386,6.224025106,6.224025114
273,0.074851945,10.14941,9.891410016,9.891410028
274,0.075098889,10.144965,12.81902692,12.81902694
275,0.075345556,10.140525,17.50401685,17.50401687
276,0.075595834,10.13602,17.04415242,17.04415244
277,0.075929167,10.13002,16.66911467,16.66911469
278,0.0762575,10.12411,21.31437345,21.31437348
279,0.076503334,10.119685,26.18758093,26.18758096
280,0.076746945,10.1153,24.75036314,24.75036317
281,0.076993889,10.110855,26.13022963,26.13022966
282,0.077243334,10.106365,27.22940301,27.22940304
283,0.077575,10.100395,28.10938316,28.1093832
284,0.077900278,10.09454,27.26874255,27.26874258
285,0.078148056,10.09008,34.99343701,34.99343705
286,0.078393056,10.08567,36.53270585,36.5327059
287,0.078639723,10.08123,38.46248383,38.46248388
288,0.078890556,10.076715,39.34492185,39.3449219
289,0.079225278,10.07069,40.27947017,40.27947022
290,0.079553334,10.064785,41.69292041,41.69292046
291,0.079800278,10.06034,39.14122172,39.14122177
292,0.080049445,10.055855,30.46811028,30.46811032
293,0.080299167,10.05136,26.87104536,26.8710454
294,0.080546667,10.046905,24.48508896,24.48508899
295,0.080879167,10.04092,22.01358041,22.01358044
296,0.0812075,10.03501,18.95368495,18.95368498
297,0.081455834,10.03054,13.10198882,13.10198884
298,0.081703056,10.02609,13.80878072,13.80878074
299,0.081951111,10.021625,18.36257594,18.36257596
300,0.082198889,10.017165,20.67788482,20.67788485
301,0.082533056,10.01115,23.81565037,23.8156504
302,0.082858056,10.0053,27.20305253,27.20305257
303,0.083103056,10.00089,28.24342616,28.2434262
304,0.083351111,10.00238333,30.6775989,30.67759894
305,0.0835975,10.00534,27.11005095,27.11005099
306,0.083844445,10.00830333,30.33779531,30.33779535
307,0.084178889,10.01231667,32.96828817,32.96828822
308,0.084508611,10.01627333,37.50016947,37.50016952
309,0.084756111,10.01924333,37.94735328,37.94735333
310,0.085005556,10.02223667,36.6266349,36.62663495
311,0.085253334,10.02521,39.33494104,39.33494109
312,0.085500278,10.02817333,41.8393047,41.83930476
313,0.085835556,10.03219667,44.35065922,44.35065928
314,0.086163334,10.03613,46.51134051,46.51134058
315,0.086408334,10.03907,46.34848112,46.34848119
316,0.086654723,10.04202667,46.68002294,46.68002301
317,0.086898889,10.04495667,50.94482058,50.94482065
318,0.087146389,10.04792667,50.84187327,50.84187334
319,0.087480278,10.05193333,50.91578908,50.91578915
320,0.087804445,10.05582333,52.59468877,52.59468885
321,0.088048611,10.05875333,56.93374176,56.93374184
322,0.088294445,10.06170333,57.9404014,57.94040148
323,0.088541945,10.06467333,56.95854139,56.95854147
324,0.088789723,10.06764667,54.15765177,54.15765185
325,0.089121945,10.07163333,51.4015516,51.40155168
326,0.089448056,10.07554667,48.16358173,48.1635818
327,0.089696667,10.07853,46.66479312,46.66479319
328,0.089945278,10.08151333,41.69964311,41.69964317
329,0.090192223,10.08447667,37.47349651,37.47349657
330,0.090438056,10.08742667,32.34160238,32.34160243
331,0.090771667,10.09143,26.73642119,26.73642123
332,0.091099167,10.09536,23.5873438,23.58734384
333,0.091345,10.09831,20.8823582,20.88235823
334,0.091591111,10.10126333,20.28195656,20.28195659
335,0.0918425,10.10428,15.69186587,15.69186589
336,0.092088889,10.10723667,17.33731753,17.33731756
337,0.092425278,10.11127333,19.80108859,19.80108862
338,0.0927525,10.1152,21.22857054,21.22857057
339,0.093000278,10.11817333,23.31687205,23.31687209
340,0.093246389,10.12112667,24.57499253,24.57499257
341,0.093493611,10.12409333,23.90215822,23.90215826
342,0.093741945,10.12707333,21.95375018,21.95375021
343,0.094069723,10.13100667,20.03409105,20.03409108
344,0.094388889,10.13483667,19.51594704,19.51594707
345,0.094635278,10.13779333,16.59768947,16.5976895
346,0.094884167,10.14078,13.4201504,13.42015042
347,0.095133611,10.14377333,9.997211952,9.997211968
348,0.095383056,10.14676667,1.870997606,1.870997609
349,0.095714445,10.15074333,-6.542522392,-6.542522402
350,0.096042778,10.15468333,-18.57588396,-18.57588399
351,0.096289167,10.15764,-22.13889079,-22.13889083
352,0.096537223,10.16061667,-28.2448023,-28.24480235
353,0.096783889,10.16357667,-26.36902509,-26.36902513
354,0.097031667,10.16655,-23.47530503,-23.47530507
355,0.097366945,10.17057333,-20.33912823,-20.33912826
356,0.097695,10.17451,-17.31732158,-17.31732161
357,0.097942223,10.17747667,-14.56144495,-14.56144497
358,0.098186667,10.18041,-17.91653173,-17.91653176
359,0.098432223,10.18335667,-22.62510593,-22.62510597
360,0.098678889,10.18631667,-23.97997566,-23.9799757
361,0.099010556,10.19029667,-25.55658351,-25.55658355
362,0.099336667,10.19421,-29.51444034,-29.51444039
363,0.099584445,10.19718333,-32.87360213,-32.87360218
364,0.099830278,10.19986667,-33.86514067,-33.86514073
365,0.100078611,10.19688667,-33.48561919,-33.48561925
366,0.100323889,10.19394333,-33.1055488,-33.10554886
367,0.100654445,10.18997667,-33.033196,-33.03319606
368,0.100979723,10.18607333,-33.72887853,-33.72887859
369,0.101226667,10.18311,-37.82710788,-37.82710794
370,0.101474167,10.18014,-40.8425677,-40.84256777
371,0.101721667,10.17717,-44.99878066,-44.99878074
372,0.101969167,10.1742,-45.03008257,-45.03008265
373,0.102297223,10.17026333,-44.45602435,-44.45602443
374,0.102621389,10.16637333,-43.76656199,-43.76656206
375,0.102871111,10.16337667,-44.09664891,-44.09664899
376,0.103121389,10.16037333,-42.50074893,-42.500749
377,0.103369723,10.15739333,-37.25484841,-37.25484847
378,0.103615834,10.15444,-39.54530432,-39.54530439
379,0.103953056,10.15039333,-41.93719144,-41.93719151
380,0.104281945,10.14644667,-36.15535774,-36.1553578
381,0.1045275,10.1435,-33.6634234,-33.66342346
382,0.104775278,10.14052667,-34.77208832,-34.77208838
383,0.105022778,10.13755667,-34.89609875,-34.89609881
384,0.105270556,10.13458333,-38.31416856,-38.31416863
385,0.105603334,10.13059,-41.51334097,-41.51334104
386,0.105929445,10.12667667,-40.60965176,-40.60965183
387,0.106175,10.12373,-40.47942644,-40.47942651
388,0.106422778,10.12075667,-38.13031422,-38.13031429
389,0.106671111,10.11777667,-33.2425212,-33.24252126
390,0.106921667,10.11477,-34.74314616,-34.74314622
391,0.107255,10.11077,-36.14122528,-36.14122534
392,0.107585,10.10681,-31.00814924,-31.0081493
393,0.107833056,10.10383333,-30.41838223,-30.41838228
