Meas,Time,Temperature,Vmax
1,2.783644167,11.00000,157.2476864
2,2.783897778,11.00000,162.8480887
3,2.784224444,11.00000,168.4817298
4,2.784549722,11.00000,178.0118621
5,2.784798056,11.00000,184.5896323
6,2.785045556,11.00000,187.7753409
7,2.785296944,11.00000,187.9889983
8,2.785546667,11.00000,180.72097
9,2.785878333,11.00000,175.4410784
10,2.786204444,11.00000,169.3654436
11,2.786452778,11.00000,159.0191539
12,2.786700556,11.00000,155.2176034
13,2.786948056,11.00000,145.5148171
14,2.787195833,11.00000,148.4511076
15,2.787525556,11.00000,152.6043694
16,2.787848056,11.00000,160.9524749
17,2.788095,11.00000,164.8028832
18,2.788339722,11.00000,154.983047
19,2.788586389,11.00000,152.9969043
20,2.788832222,11.00000,150.2605393
21,2.789163889,11.00000,150.5929103
22,2.789491944,11.00000,164.6597836
23,2.789737778,11.00000,177.5316389
24,2.789987222,11.00000,171.4102628
25,2.790235833,11.00000,162.6998372
26,2.790485556,11.00000,154.0313281
27,2.790813056,11.00000,142.4763149
28,2.791136667,11.00000,140.053905
29,2.791388056,11.00000,134.9300824
30,2.791641111,11.00000,140.1679632
31,2.791890278,11.00000,126.5402998
32,2.7921375,11.00000,115.8210976
33,2.79247,11.00000,108.2245146
34,2.792794444,11.00000,114.594931
35,2.793040833,11.00000,110.9759349
36,2.793286944,11.00000,124.8813739
37,2.793537222,11.00000,127.1452045
38,2.79379,11.00000,132.2934115
39,2.794111111,11.00000,138.7918271
40,2.794429167,11.00000,134.3581882
41,2.794675833,11.00000,125.317462
42,2.794923611,11.00000,124.5968387
43,2.79517,11.00000,116.0337412
44,2.795418611,11.00000,123.9549125
45,2.795745556,11.00000,131.0877574
46,2.796070833,11.00000,148.0279542
47,2.796319444,11.00000,160.2554089
48,2.796564167,11.00000,153.2904336
49,2.79681,11.00000,163.3663377
50,2.797055833,11.00000,156.022088
51,2.797386667,11.00000,148.1533103
52,2.797712222,11.00000,150.133152
53,2.797961389,11.00000,151.3526849
54,2.798209722,11.00000,142.3082668
55,2.798461389,11.00000,134.3704968
56,2.79871,11.00000,138.5964509
57,2.799040556,11.00000,143.4211333
58,2.799366944,11.00000,141.8495113
59,2.799613611,11.00000,146.6517222
60,2.799863056,11.00000,143.0929236
61,2.800112222,11.00000,146.9176201
62,2.800364722,11.00000,138.9693712
63,2.800694444,11.00000,131.6203319
64,2.801019722,11.00000,131.2522064
65,2.801267222,11.00000,142.9618463
66,2.801513056,11.00000,151.7596892
67,2.801761944,11.00000,152.5043253
68,2.802010278,11.00000,147.0635611
69,2.802334722,11.00000,139.3159261
70,2.802656111,11.00000,144.7604133
71,2.802903889,11.00000,163.2532474
72,2.803149722,11.00000,165.2810949
73,2.803394722,11.00000,167.2470936
74,2.803643056,11.00000,170.4980967
75,2.803973889,11.00000,176.0689598
76,2.804299444,11.00000,182.8268777
77,2.8045475,11.00000,175.560162
78,2.804794167,11.00000,160.8757785
79,2.805042222,11.00000,152.3449388
80,2.805293611,11.00000,158.5547117
81,2.805618056,11.00000,166.7778067
82,2.805936944,11.00000,174.1703946
83,2.806183333,11.00000,190.5197698
84,2.806431667,11.00000,182.2309014
85,2.806682222,11.00000,171.9495494
86,2.806930833,11.00000,168.0711182
87,2.807260833,11.00000,163.2551843
88,2.807586667,11.00000,166.0309758
89,2.807833611,11.00000,162.8285774
90,2.808083056,11.00000,169.2612475
91,2.8083325,11.00000,177.4323211
92,2.808584444,11.00000,164.8199587
93,2.808917222,11.00000,152.2884736
94,2.809240833,11.00000,146.2809328
95,2.809491944,11.00000,135.966031
96,2.809743333,11.00000,152.8129775
97,2.809990833,11.00000,146.8661598
98,2.810240278,11.00000,159.3067743
99,2.810566667,11.00000,172.0877257
100,2.810884444,11.00000,173.7091025
101,2.811133056,11.00000,168.1554319
102,2.811381389,11.00000,157.140205
103,2.811626667,11.00000,161.2309075
104,2.811874444,11.00000,146.9435946
105,2.812202222,11.00000,133.4639842
106,2.812521944,11.00000,137.3493672
107,2.812766944,11.00000,136.1058153
108,2.813013611,11.00000,153.1701061
109,2.813264722,11.00000,154.1632263
110,2.813510556,11.00000,154.8911144
111,2.813835278,11.00000,157.6618286
112,2.814156944,11.00000,163.2949076
113,2.814410556,11.00000,157.957263
114,2.814662222,11.00000,163.4890363
115,2.814911389,11.00000,154.8037447
116,2.815163611,11.00000,168.0446418
117,2.815498333,11.00000,181.4065225
118,2.815825278,11.00000,186.4559435
119,2.816073611,11.00000,191.6290949
120,2.816325833,11.00000,197.3750079
121,2.816574444,11.00000,209.2116454
122,2.816821944,11.00093,214.9871384
123,2.817153889,11.00292,222.5747823
124,2.817480833,11.00489,227.9226345
125,2.817725,11.00635,235.3417637
126,2.8179725,11.00784,240.1786221
127,2.81822,11.00932,241.1869414
128,2.818466667,11.01080,235.6647409
129,2.818791111,11.01275,227.8686908
130,2.819111944,11.01467,222.972932
131,2.819356667,11.01614,204.4350463
132,2.819605278,11.01763,200.8122958
133,2.819851944,11.01911,182.4228518
134,2.820099444,11.02060,186.2840218
135,2.820425833,11.02256,191.0929259
136,2.820748333,11.02449,217.8812295
137,2.820998889,11.02599,220.2159298
138,2.821249167,11.02750,222.4722389
139,2.821496667,11.02898,231.706469
140,2.821747222,11.03048,230.5290385
141,2.822078889,11.03247,231.3332234
142,2.822402222,11.03441,221.3722124
143,2.822648056,11.03589,222.1742569
144,2.822894722,11.03737,217.1237111
145,2.823140556,11.03884,219.0163593
146,2.823389167,11.04034,205.0106841
147,2.823718333,11.04231,188.1461842
148,2.824040556,11.04424,191.3436271
149,2.82429,11.04574,183.8954722
150,2.824539722,11.04724,187.7648848
151,2.824787222,11.04872,183.9809537
152,2.8250375,11.05023,156.4068183
153,2.825363611,11.05218,133.0074385
154,2.825684444,11.05411,149.131356
155,2.82593,11.05558,137.3318585
156,2.826175,11.05705,142.2597684
157,2.826420278,11.05852,162.2810424
158,2.826669444,11.06002,168.7454886
159,2.827000278,11.06200,173.3841994
160,2.827328056,11.06397,162.3849679
161,2.827577778,11.06547,138.516684
162,2.827826944,11.06696,141.2793473
163,2.828073889,11.06844,153.2490286
164,2.828320833,11.06993,157.5107546
165,2.828651667,11.07191,162.4038284
166,2.828976389,11.07386,173.7270675
167,2.829222778,11.07534,195.1993794
168,2.829475833,11.07686,191.3480689
169,2.829725,11.07835,188.1051057
170,2.829978056,11.07987,177.3538525
171,2.830305278,11.08183,165.9243331
172,2.830627778,11.08377,160.9827754
173,2.830875278,11.08525,155.7284395
174,2.831121944,11.08673,149.6747563
175,2.831369722,11.08822,152.6333894
176,2.831618333,11.08971,157.3425873
177,2.831942778,11.09166,163.0206067
178,2.8322625,11.09358,148.0280664
179,2.832510278,11.09506,163.4792419
180,2.832756111,11.09654,169.0305226
181,2.833001667,11.09801,180.4427521
182,2.833251111,11.09951,165.6243159
183,2.83358,11.10148,152.2375848
184,2.833903611,11.10342,149.096573
185,2.834149444,11.10490,148.8752097
186,2.834396111,11.10638,160.7847236
187,2.834643611,11.10786,162.9874786
188,2.834892222,11.10935,162.8544865
189,2.835221111,11.11133,159.0389009
190,2.835543889,11.11326,161.5766226
191,2.835793056,11.11476,154.6986904
192,2.836042778,11.11626,174.6988395
193,2.836291389,11.11775,180.4856578
194,2.836538889,11.11923,164.5581957
195,2.836871389,11.12123,152.529284
196,2.837197778,11.12319,147.8696687
197,2.837444167,11.12467,148.2296061
198,2.837688333,11.12613,137.6507624
199,2.837933056,11.12760,136.6330242
200,2.838180556,11.12908,142.473907
201,2.838507778,11.13105,147.7413246
202,2.838826944,11.13296,172.3859806
203,2.8390725,11.13444,186.8771331
204,2.839319444,11.13592,180.1096309
205,2.839567222,11.13740,177.2967336
206,2.839813611,11.13888,175.6468878
207,2.840148333,11.14089,172.8251653
208,2.840476111,11.14286,180.5200993
209,2.840725278,11.14435,177.1967661
210,2.840975833,11.14586,176.7909735
211,2.841227222,11.14736,184.4116257
212,2.841481944,11.14889,182.3513502
213,2.841811944,11.15087,181.6655138
214,2.842135278,11.15281,184.2868508
215,2.842383056,11.15430,187.1289344
216,2.842628889,11.15577,198.6163904
217,2.842874444,11.15725,179.5459698
218,2.843123056,11.15874,184.3362906
219,2.843446667,11.16068,189.4402625
220,2.843763056,11.16258,182.710743
221,2.844013333,11.16408,183.1727174
222,2.844262778,11.16558,177.7549771
223,2.844509167,11.16706,195.4006446
224,2.844756111,11.16854,194.5450854
225,2.845083889,11.17050,195.9712804
226,2.845406667,11.17244,227.4771697
227,2.8456525,11.17392,217.0188425
228,2.845904722,11.17543,224.1823167
229,2.846156667,11.17694,228.3794211
230,2.846408333,11.17845,233.0072815
231,2.846739722,11.18044,235.1559793
232,2.847060556,11.18236,240.9557984
233,2.847310278,11.18386,223.3996511
234,2.847558611,11.18535,208.9110112
235,2.847806944,11.18684,202.4619106
236,2.848059444,11.18836,196.9537685
237,2.848388333,11.19033,195.2982346
238,2.848711389,11.19227,207.7471218
239,2.848955556,11.19373,207.6590138
240,2.849203333,11.19522,214.2474705
241,2.849453611,11.19672,230.5709866
242,2.849701111,11.19821,232.5739268
243,2.850030278,11.20018,237.2677956
244,2.850355556,11.20213,258.4431856
245,2.850602222,11.20361,267.4536995
246,2.850848889,11.20509,273.3542119
247,2.851100278,11.20660,279.543761
248,2.851350278,11.20810,284.7393056
249,2.851673056,11.21004,285.2470452
250,2.851993889,11.21196,302.9753927
251,2.852243611,11.21346,280.4971836
252,2.852490278,11.21494,289.4396798
253,2.8527375,11.21643,294.6267927
254,2.852983333,11.21790,300.9907221
255,2.853309722,11.21986,307.031857
256,2.853633889,11.22180,331.6674483
257,2.853878889,11.22327,325.1283863
258,2.854124444,11.22475,332.7082364
259,2.854371389,11.22623,342.3978712
260,2.854620556,11.22772,332.9913454
261,2.854943333,11.22966,325.3652426
262,2.855261389,11.23157,319.1555011
263,2.855506944,11.23304,309.1130521
264,2.855754722,11.23453,309.7571573
265,2.8560025,11.23602,311.2594001
266,2.856251111,11.23751,306.3901176
267,2.856580833,11.23949,296.3581111
268,2.856906111,11.24144,302.1678237
269,2.857153889,11.24292,302.6342892
270,2.857400556,11.24440,289.3992328
271,2.857653611,11.24592,277.6864262
272,2.857903333,11.24742,264.9249636
273,2.858229167,11.24938,254.9471267
274,2.8585525,11.25132,260.9514857
275,2.858801944,11.25281,250.1320819
276,2.859050556,11.25430,243.2314119
277,2.859298333,11.25579,251.8894133
278,2.859545833,11.25728,229.9078574
279,2.859875833,11.25926,205.7068222
280,2.860200278,11.26120,204.1052189
281,2.860445833,11.26268,200.480118
282,2.860691944,11.26415,189.9259705
283,2.8609375,11.26563,179.609558
284,2.861188889,11.26713,172.2108101
285,2.861518611,11.26911,166.0243982
286,2.861842778,11.27106,149.268003
287,2.862089722,11.27254,144.3563473
288,2.862334722,11.27401,133.3159543
289,2.862583333,11.27550,116.5034598
290,2.862832778,11.27700,97.74665602
291,2.8631625,11.27898,81.74048425
292,2.863488611,11.28093,87.48997441
293,2.863739167,11.28244,105.1869875
294,2.863993056,11.28396,101.4109911
295,2.864243611,11.28546,108.3622494
296,2.864493889,11.28696,108.089104
297,2.864826389,11.28896,107.9080696
298,2.865148889,11.29089,105.8293771
299,2.865395,11.29237,100.8874221
300,2.865644167,11.29387,101.6015434
301,2.865893889,11.29536,113.8651735
302,2.866144722,11.29687,108.5193309
303,2.866474167,11.29885,106.1063375
304,2.866799167,11.30080,101.6121137
305,2.867049722,11.30230,100.5460505
306,2.8673,11.30380,111.5611075
307,2.867551111,11.30531,107.5455556
308,2.867801667,11.30681,118.9487077
309,2.868134444,11.30881,127.7238742
310,2.868460278,11.31076,119.7112305
311,2.868711667,11.31227,108.7900292
312,2.868960278,11.31376,111.4298144
313,2.869210556,11.31526,107.361261
314,2.869456111,11.31674,83.54989871
315,2.869778889,11.31867,61.20733459
316,2.870099444,11.32060,59.60413057
317,2.870348333,11.32209,49.92616664
318,2.870592778,11.32356,38.86369159
319,2.870839167,11.32504,47.58138075
320,2.871086667,11.32652,49.87048775
321,2.871413611,11.32848,51.74639948
322,2.871732778,11.33040,68.45960985
323,2.871979167,11.33188,77.69706178
324,2.872225,11.33335,65.63481832
325,2.8724725,11.33484,76.47126969
326,2.872721944,11.33633,77.68325164
327,2.873049167,11.33830,75.35819948
328,2.873373333,11.34024,75.08429096
329,2.873622778,11.34174,68.44424703
330,2.873871389,11.34323,48.94334002
331,2.8741175,11.34471,38.74856464
332,2.874363056,11.34618,41.31759557
333,2.874688611,11.34813,47.6428076
334,2.875012778,11.35008,58.99175625
335,2.875260278,11.35156,71.06447221
336,2.875508056,11.35305,62.62158848
337,2.875755833,11.35454,57.89711092
338,2.876003333,11.35602,44.21466566
339,2.876333333,11.35800,29.60157127
340,2.876654722,11.35993,18.38849222
341,2.8769,11.36140,20.51134949
342,2.877149167,11.36290,32.01063206
343,2.877398611,11.36439,27.99337334
344,2.877646111,11.36588,29.30943171
345,2.877978611,11.36787,35.9432287
346,2.878305,11.36983,58.3926833
347,2.878554444,11.37133,56.69691814
348,2.878802222,11.37281,69.67807949
349,2.879049722,11.37430,80.61828552
350,2.8793,11.37580,82.55425082
351,2.879631667,11.37779,79.82200562
352,2.879956111,11.37974,73.23650026
353,2.880204722,11.38123,67.87750071
354,2.8804525,11.38272,58.87548287
355,2.8807,11.38420,50.63569219
356,2.880946667,11.38568,45.00009177
357,2.881273889,11.38764,41.05473998
358,2.881595556,11.38957,43.89665776
359,2.881845,11.39107,40.78674129
360,2.882090833,11.39255,50.43002826
361,2.8823375,11.39403,53.18732595
362,2.882583889,11.39550,50.5890977
363,2.882909444,11.39746,48.74261873
364,2.883230833,11.39939,60.85111781
365,2.883476944,11.40086,64.49786632
366,2.883722778,11.40234,60.75610287
367,2.883969444,11.40382,67.92533733
368,2.884216944,11.40530,67.11151358
369,2.884546111,11.40728,66.27563
370,2.884869444,11.40922,101.3188637
371,2.885114444,11.41069,94.6758716
372,2.885360833,11.41217,96.60307065
373,2.885606944,11.41364,97.95207646
374,2.885856389,11.41514,106.7818236
375,2.886183611,11.41710,113.7963848
376,2.886506667,11.41904,129.5532896
377,2.886751944,11.42051,111.5944948
378,2.886997778,11.42199,108.0563736
379,2.887246944,11.42348,115.0979419
380,2.887494444,11.42497,112.0757062
381,2.887825556,11.42695,109.4929516
382,2.888152778,11.42892,120.6950907
383,2.888402778,11.43042,126.6648662
384,2.888651389,11.43191,125.9776702
385,2.888898333,11.43339,127.6004026
386,2.8891475,11.43489,147.753201
387,2.889473611,11.43684,166.6761805
388,2.889795278,11.43877,172.8184597
389,2.890043889,11.44026,180.7714291
390,2.890289722,11.44174,163.7252967
391,2.890537222,11.44322,164.2591922
392,2.890785833,11.44472,168.8478432
393,2.891110278,11.44666,173.3974075
394,2.891428333,11.44857,179.7029241
395,2.891675833,11.45006,178.4721323
396,2.891920833,11.45153,159.6589852
397,2.892169444,11.45302,162.8758085
398,2.8924225,11.45454,128.435248
399,2.892748333,11.45649,95.12819167
400,2.893070278,11.45842,116.8699226
401,2.893316944,11.45990,133.3694184
402,2.8935625,11.46138,129.0493538
403,2.893811111,11.46287,117.0877919
404,2.894058611,11.46435,104.8196905
405,2.894383333,11.46630,91.66477891
406,2.894705,11.46823,79.06975583
407,2.894954444,11.46973,73.06332913
408,2.895201111,11.47121,69.61324878
409,2.895446944,11.47268,64.89052457
410,2.895696389,11.47418,55.15984834
411,2.896023611,11.47614,47.67395632
412,2.896344167,11.47807,46.91040155
413,2.896591667,11.47955,68.41070777
414,2.896839444,11.48104,64.59410161
415,2.897086944,11.48252,64.5533344
416,2.897336389,11.48402,75.12447071
417,2.897664444,11.48599,86.82893584
418,2.897987222,11.48792,101.7363433
419,2.898232778,11.48940,104.115159
420,2.898478611,11.49087,107.0300847
421,2.898724722,11.49235,126.1857356
422,2.898971111,11.49383,146.2436919
423,2.899295833,11.49578,166.0388249
424,2.899618056,11.49771,174.9363294
425,2.899864722,11.49919,177.8523229
426,2.900111667,11.50134,185.8031981
427,2.900359444,11.50431,190.8386658
428,2.900604722,11.50726,198.9926208
429,2.90094,11.51128,206.0615091
430,2.901267222,11.51521,195.2479658
431,2.901514167,11.51817,184.0058391
432,2.901760833,11.52113,178.9836273
433,2.902008611,11.52410,169.4093243
434,2.902253333,11.52704,150.8392476
435,2.902575278,11.53090,132.1785637
436,2.902892778,11.53471,141.4608393
437,2.903138611,11.53766,127.347455
438,2.903384444,11.54061,115.901642
439,2.903629722,11.54356,130.037688
440,2.903877778,11.54653,138.1500293
441,2.904210556,11.55053,147.5429096
442,2.904537778,11.55445,155.3662724
443,2.904784444,11.55741,158.7464737
444,2.905029444,11.56035,172.2317304
445,2.905277778,11.56333,183.1531089
446,2.905524444,11.56629,184.9656553
447,2.90585,11.57020,182.2874946
448,2.906169722,11.57404,180.6627681
449,2.906417222,11.57701,171.2013773
450,2.906663056,11.57996,166.1831922
451,2.90691,11.58292,155.479129
452,2.907161111,11.58593,148.0671195
453,2.907493056,11.58992,143.8510356
454,2.907816944,11.59380,138.920446
455,2.908063611,11.59676,143.4060327
456,2.908308611,11.59970,119.0457228
457,2.908556111,11.60267,133.5814439
458,2.908802222,11.60563,124.5421034
459,2.909130278,11.60956,116.1665827
460,2.909452778,11.61343,117.7494879
461,2.909703056,11.61644,117.419811
462,2.909951667,11.61942,127.9197958
463,2.910200278,11.62240,119.7631674
464,2.910445278,11.62534,110.7671281
465,2.910771111,11.62925,105.3736519
466,2.911093056,11.63312,97.28777071
467,2.911341667,11.63610,93.76328978
468,2.911587222,11.63905,98.02399931
469,2.911834722,11.64202,113.8690831
470,2.912082222,11.64499,108.0942054
471,2.912411389,11.64894,99.86481522
472,2.912733333,11.65280,101.9105074
473,2.912980556,11.65577,93.64686938
474,2.9132275,11.65873,94.41037316
475,2.913473333,11.66168,102.7410705
476,2.9137225,11.66467,100.6799863
477,2.914054167,11.66865,97.60360363
478,2.914379444,11.67255,93.06360355
479,2.9146275,11.67553,87.96876261
480,2.914876389,11.67852,85.65137849
481,2.9151225,11.68147,80.80605454
482,2.915371667,11.68446,78.57521192
483,2.915700278,11.68840,75.88633684
484,2.916024167,11.69229,71.83941957
485,2.91627,11.69524,71.81433998
486,2.916516944,11.69820,70.94398988
487,2.916768333,11.70061,71.46981749
488,2.917019444,11.70212,68.55262303
489,2.917342778,11.70406,65.75603601
490,2.917662778,11.70598,84.37878109
491,2.917912222,11.70747,78.6931664
492,2.918159722,11.70896,78.03689889
493,2.918408333,11.71045,60.61109006
494,2.918653333,11.71192,64.06026557
495,2.918979444,11.71388,66.93348243
496,2.919299444,11.71580,72.38398151
497,2.919548611,11.71729,58.92074688
498,2.919798333,11.71879,41.12091153
499,2.920046944,11.72028,49.11170771
500,2.920291389,11.72175,52.12610133
501,2.920617778,11.72371,55.29937714
502,2.920935833,11.72562,75.35688737
503,2.9211825,11.72710,83.6670793
504,2.921431111,11.72859,76.79828838
505,2.921678611,11.73007,73.89306857
506,2.921925278,11.73155,86.63812048
507,2.922250556,11.73350,103.2736351
508,2.922570556,11.73542,106.3092148
509,2.922818889,11.73691,111.8184324
510,2.923063889,11.73838,114.8474937
511,2.923309722,11.73986,122.2170147
512,2.923555556,11.74133,135.9211733
513,2.923886111,11.74332,146.9393317
514,2.924211389,11.74527,166.4944951
515,2.924459722,11.74676,158.9400267
516,2.924705833,11.74824,147.8964305
517,2.924953611,11.74972,147.2687201
518,2.925201111,11.75121,128.6011361
519,2.925524444,11.75315,111.7429557
520,2.925847778,11.75509,128.2763163
521,2.926097222,11.75658,136.6024962
522,2.926345,11.75807,146.2088704
523,2.926592778,11.75956,149.901739
524,2.926841389,11.76105,142.195709
525,2.927166389,11.76300,133.3328614
526,2.927488056,11.76493,143.022348
527,2.927733889,11.76640,140.2147681
528,2.927979167,11.76788,137.8018923
529,2.928225556,11.76935,135.8594032
530,2.928472222,11.77083,132.502583
531,2.928796944,11.77278,129.5483173
532,2.929122222,11.77473,136.6160056
533,2.929369444,11.77622,137.4552053
