Meas,Time,Temperature,Vmax.og,Vmax.inst
1,0,9.5,-4.136493508,-4.136493508
2,0.000245833,9.5,-5.108859001,-5.108859001
3,0.0004925,9.5,-3.130171412,-3.130171412
4,0.000741111,9.5,-1.597468912,-1.597468912
5,0.000988611,9.5,1.309785068,1.309785068
6,0.001339722,9.5,4.091954473,4.091954473
7,0.001683056,9.5,5.305487432,5.305487432
8,0.001930556,9.5,7.305361648,7.305361648
9,0.002179167,9.5,8.77683642,8.77683642
10,0.002425278,9.5,9.783288703,9.783288703
11,0.002673889,9.5,9.154243376,9.154243376
12,0.003024444,9.5,8.764651142,8.764651142
13,0.003367222,9.5,8.647442327,8.647442327
14,0.003612778,9.5,8.983315496,8.983315496
15,0.003863056,9.5,4.650077789,4.650077789
16,0.004111944,9.5,4.051746802,4.051746802
17,0.004363056,9.5,2.402017158,2.402017158
18,0.004712778,9.5,0.925072461,0.925072461
19,0.005052778,9.5,1.139021091,1.139021091
20,0.005302222,9.5,4.69204612,4.69204612
21,0.005551667,9.5,4.377461452,4.377461452
22,0.005800556,9.5,6.503156641,6.503156641
23,0.00605,9.5,5.33621264,5.33621264
24,0.006398889,9.5,4.028049983,4.028049983
25,0.006738889,9.5,6.606369394,6.606369394
26,0.006984722,9.5,7.262322993,7.262322993
27,0.007233056,9.5,9.084041003,9.084041003
28,0.007488056,9.5,12.75991502,12.75991502
29,0.007741111,9.5,15.28462841,15.28462841
30,0.008094167,9.5,17.59395699,17.59395699
31,0.008438333,9.5,15.82289809,15.82289809
32,0.008686111,9.5,15.91625525,15.91625525
33,0.008939167,9.5,15.90463701,15.90463701
34,0.009191944,9.5,11.30745843,11.30745843
35,0.009438056,9.5,9.913478564,9.913478565
36,0.009789167,9.5,8.78175118,8.781751181
37,0.010130833,9.5,6.828528733,6.828528733
38,0.010380278,9.5,8.383525993,8.383525994
39,0.010629722,9.5,10.83519844,10.83519844
40,0.010879167,9.5,11.37559908,11.37559908
41,0.011129444,9.5,7.667440933,7.667440934
42,0.011483889,9.5,4.008411804,4.008411804
43,0.011827778,9.5,4.151574465,4.151574465
44,0.012076944,9.5,7.827810111,7.827810112
45,0.012329167,9.5,9.636036557,9.636036558
46,0.012580556,9.5,12.46018379,12.46018379
47,0.012829722,9.5,15.0130025,15.0130025
48,0.013181389,9.5,17.36336062,17.36336062
49,0.013519444,9.5,17.93215516,17.93215516
50,0.013764444,9.5,16.95433428,16.95433428
51,0.014013056,9.5,21.77812749,21.77812749
52,0.014261667,9.5,22.93041079,22.93041079
53,0.014515556,9.5,25.00911085,25.00911085
54,0.014875556,9.5,27.04156897,27.04156897
55,0.015221111,9.5,26.14038763,26.14038763
56,0.015468889,9.5,27.43127966,27.43127966
57,0.01572,9.5,25.43017228,25.43017228
58,0.015969444,9.5,28.04547328,28.04547328
59,0.016218889,9.5,26.61095466,26.61095466
60,0.016576944,9.51183,25.36830341,25.36830341
61,0.0169225,9.52427,20.93785831,20.93785831
62,0.017173056,9.53329,17.14869265,17.14869265
63,0.017423056,9.54229,14.13891701,14.13891701
64,0.017675556,9.55138,14.04097318,14.04097318
65,0.017929444,9.56052,13.56180779,13.56180779
66,0.018276667,9.57302,12.67758126,12.67758126
67,0.018611944,9.58509,7.787399073,7.787399074
68,0.018858611,9.59397,3.527225061,3.527225061
69,0.019107222,9.60292,3.761613362,3.761613362
70,0.019358333,9.61196,6.853762896,6.853762897
71,0.019606111,9.62088,10.97645946,10.97645946
72,0.019956944,9.63351,15.1620479,15.1620479
73,0.020298611,9.64581,16.47470525,16.47470525
74,0.020546389,9.65473,18.48075688,18.48075688
75,0.020795,9.66368,19.90966921,19.90966921
76,0.021046111,9.67272,17.50711197,17.50711197
77,0.021298611,9.68181,17.13734059,17.13734059
78,0.021650278,9.69447,16.84232593,16.84232593
79,0.021989444,9.70668,13.87695131,13.87695131
80,0.022235,9.71552,10.90829029,10.90829029
81,0.022484167,9.72449,4.894850642,4.894850643
82,0.022735,9.73352,8.051565078,8.051565079
83,0.022983611,9.74247,8.367123608,8.367123609
84,0.02333,9.75494,8.729266922,8.729266923
85,0.023672222,9.76726,11.54492987,11.54492987
86,0.023924444,9.77634,12.89540871,12.89540871
87,0.024174167,9.78533,11.24022074,11.24022074
88,0.024423333,9.7943,10.86538,10.86538
89,0.024669167,9.80315,12.86489137,12.86489137
90,0.025023611,9.81591,15.07824286,15.07824286
91,0.025371111,9.82842,15.60987651,15.60987651
92,0.025623056,9.83749,20.87222576,20.87222576
93,0.025871944,9.84645,25.56973786,25.56973786
94,0.026122222,9.85546,26.84590976,26.84590976
95,0.026375,9.86456,27.78840452,27.78840452
96,0.0267225,9.87707,28.99081492,28.99081493
97,0.027055833,9.88907,32.30165278,32.30165279
98,0.027302778,9.89796,29.82065143,29.82065144
99,0.027552778,9.90696,27.80474964,27.80474965
100,0.027805833,9.91607,24.56647506,24.56647506
101,0.028058333,9.92516,22.96218037,22.96218037
102,0.028413889,9.93796,20.56142163,20.56142163
103,0.028762778,9.95052,14.52114275,14.52114275
104,0.029015278,9.95961,10.14155247,10.14155247
105,0.029268056,9.96871,4.078148374,4.078148375
106,0.0295175,9.97769,0.449208985,0.449208985
107,0.029768889,9.98674,2.405552961,2.405552961
108,0.030120833,9.99941,4.661591247,4.661591248
109,0.030458056,10.01155,4.371926173,4.371926174
110,0.030705556,10.02046,0.687180913,0.687180913
111,0.030955833,10.02947,-4.770393316,-4.770393317
112,0.031204167,10.03841,-2.440135682,-2.440135683
113,0.031452778,10.04736,-3.625547244,-3.625547245
114,0.031803611,10.05999,-4.7978211,-4.797821101
115,0.032144444,10.07226,-4.676885292,-4.676885293
116,0.032393333,10.08122,-5.043063347,-5.043063348
117,0.032643333,10.09022,-4.655544099,-4.6555441
118,0.032890278,10.09911,-4.404682169,-4.40468217
119,0.033144167,10.093125,-7.481763924,-7.481763926
120,0.033493333,10.08265,-10.36339993,-10.36339993
121,0.033832222,10.07248333,-10.50604668,-10.50604668
122,0.034081667,10.065,-10.52528325,-10.52528325
123,0.034333056,10.05745833,-10.02588573,-10.02588573
124,0.034585278,10.04989167,-6.045941112,-6.045941113
125,0.034838333,10.0423,-8.652965451,-8.652965453
126,0.035191111,10.03171667,-11.41542617,-11.41542617
127,0.035535556,10.02138333,-13.2628422,-13.2628422
128,0.035786667,10.01385,-10.52704102,-10.52704102
129,0.036037222,10.00633333,-12.1046336,-12.1046336
130,0.036285833,9.998875,-10.76529075,-10.76529075
131,0.036535,9.9914,-15.18775808,-15.18775808
132,0.036879444,9.981066667,-19.39991581,-19.39991582
133,0.037216667,9.97095,-17.73749513,-17.73749513
134,0.037466389,9.963458333,-18.42826503,-18.42826503
135,0.037721111,9.955816667,-20.08800752,-20.08800753
136,0.037972222,9.948283333,-19.84133789,-19.8413379
137,0.038222778,9.940766667,-15.40068868,-15.40068868
138,0.038576111,9.930166667,-10.89984237,-10.89984237
139,0.038919167,9.919875,-9.947082939,-9.947082942
140,0.039169444,9.912366667,-7.727703707,-7.727703709
141,0.039418056,9.904908333,-10.06831547,-10.06831547
142,0.039668333,9.8974,-9.186807859,-9.186807862
143,0.039915,9.89,-8.785660586,-8.785660589
144,0.040269444,9.879366667,-8.698704116,-8.698704119
145,0.040613889,9.869033333,-8.157247806,-8.157247808
146,0.040864444,9.861516667,-10.26678132,-10.26678132
147,0.041113056,9.854058333,-9.294544327,-9.29454433
148,0.0413625,9.846575,-8.518522847,-8.51852285
149,0.041611944,9.839091667,-6.573151295,-6.573151297
150,0.041962778,9.828566667,-4.263095767,-4.263095768
151,0.042304444,9.818316667,-5.833639142,-5.833639144
152,0.042553889,9.810833333,-4.541426547,-4.541426548
153,0.042803333,9.80335,-4.447365795,-4.447365796
154,0.043056667,9.79575,-5.481404617,-5.481404619
155,0.043303333,9.78835,-10.35033974,-10.35033974
156,0.043659722,9.777658333,-15.20327363,-15.20327363
157,0.044003056,9.767358333,-17.34921088,-17.34921089
158,0.044251667,9.7599,-20.03018428,-20.03018429
159,0.044498611,9.752491667,-19.13421784,-19.13421785
160,0.044748889,9.744983333,-21.74425184,-21.74425185
161,0.044999167,9.737475,-25.7766141,-25.77661411
162,0.045351111,9.726916667,-29.37551047,-29.37551048
163,0.045694444,9.716616667,-30.07812259,-30.0781226
164,0.045944722,9.709108333,-28.98879301,-28.98879302
165,0.046193333,9.70165,-26.11151075,-26.11151076
166,0.046439167,9.694275,-22.22473392,-22.22473393
167,0.046688611,9.686791667,-22.87275826,-22.87275827
168,0.047044167,9.676125,-23.82649882,-23.82649883
169,0.047389444,9.665766667,-20.6906569,-20.69065691
170,0.047636944,9.658341667,-19.79030553,-19.79030554
171,0.047883611,9.650941667,-14.70558026,-14.70558027
172,0.048131389,9.643508333,-10.67916367,-10.67916367
173,0.048380556,9.636033333,-7.813894993,-7.813894996
174,0.048732778,9.625466667,-5.622835088,-5.62283509
175,0.049071944,9.615291667,-6.626377008,-6.62637701
176,0.049320833,9.607825,-4.986201161,-4.986201163
177,0.049568611,9.600391667,-4.424261611,-4.424261613
178,0.049820833,9.598565,-6.574711811,-6.574711813
179,0.050071389,9.597061667,-10.80642132,-10.80642132
180,0.050423889,9.594946667,-14.10816407,-14.10816408
181,0.050764167,9.592905,-15.28469008,-15.28469009
182,0.051015278,9.591398333,-20.63458268,-20.63458269
183,0.051268056,9.589881667,-21.35577604,-21.35577605
184,0.051516667,9.58839,-19.54020295,-19.54020296
185,0.051761944,9.586918333,-18.08951631,-18.08951632
186,0.052105556,9.584856667,-17.44862778,-17.44862779
187,0.052438056,9.582861667,-16.67520063,-16.67520064
188,0.052687222,9.581366667,-19.92568796,-19.92568797
189,0.052939444,9.579853333,-19.18417115,-19.18417116
190,0.053191667,9.57834,-20.27107584,-20.27107585
191,0.053444722,9.576821667,-19.2253785,-19.22537851
192,0.053803056,9.574671667,-18.17427819,-18.1742782
193,0.054145833,9.572615,-15.33821883,-15.33821884
194,0.054396944,9.571108333,-16.88717823,-16.88717824
195,0.054644444,9.569623333,-13.44014784,-13.44014785
196,0.054891389,9.568141667,-13.57866265,-13.57866266
197,0.055140833,9.566645,-10.87380327,-10.87380327
198,0.055492222,9.564536667,-7.721062167,-7.72106217
199,0.055830556,9.562506667,-7.443862497,-7.4438625
200,0.056078333,9.56102,-5.895148778,-5.89514878
201,0.056327778,9.559523333,-6.389391512,-6.389391515
202,0.056578889,9.558016667,-4.373261407,-4.373261409
203,0.056825556,9.556536667,0.573746652,0.573746652
204,0.057174444,9.554443333,5.253750899,5.253750901
205,0.057515556,9.552396667,6.71158304,6.711583043
206,0.057766667,9.55089,7.484868108,7.484868111
207,0.058016389,9.549391667,3.11757928,3.117579281
208,0.058267778,9.547883333,6.848960917,6.84896092
209,0.058516111,9.546393333,9.725500427,9.725500431
210,0.058868889,9.544276667,13.23498318,13.23498319
211,0.059210833,9.542225,17.66795907,17.66795908
212,0.059458889,9.540736667,22.31482522,22.31482523
213,0.059706389,9.539251667,23.66557439,23.6655744
214,0.059955278,9.537758333,28.05374123,28.05374124
215,0.060203056,9.536271667,29.34435528,29.34435529
216,0.060548333,9.5342,29.99734554,29.99734555
217,0.06089,9.53215,29.56723966,29.56723967
218,0.061141389,9.530641667,29.07509318,29.07509319
219,0.061389722,9.529151667,29.37355014,29.37355015
220,0.061637222,9.527666667,27.97024773,27.97024774
221,0.0618875,9.526165,24.12205843,24.12205844
222,0.062243056,9.524031667,20.21437675,20.21437676
223,0.062582222,9.521996667,16.24937873,16.24937874
224,0.062832778,9.520493333,12.80955697,12.80955698
225,0.063083056,9.518991667,10.7935199,10.7935199
226,0.063333056,9.517491667,7.25609719,7.256097193
227,0.063583611,9.515988333,9.642519481,9.642519485
228,0.063933611,9.513888333,12.56056737,12.56056738
229,0.064273611,9.511848333,17.40082316,17.40082317
230,0.064521111,9.510363333,15.17212694,15.17212695
231,0.064773333,9.50885,11.63547514,11.63547515
232,0.06502,9.50737,10.09933114,10.09933114
233,0.065270556,9.505866667,4.764040158,4.76404016
234,0.065619444,9.503773333,-0.397470632,-0.397470632
235,0.065963056,9.501711667,-2.366653647,-2.366653648
236,0.066211389,9.500221667,-4.117082709,-4.117082711
237,0.066460833,9.50765,-4.402644938,-4.40264494
238,0.066714167,9.51677,-7.131347553,-7.131347556
239,0.066965278,9.52581,-8.979965987,-8.979965991
240,0.067321111,9.53862,-10.65343668,-10.65343669
241,0.067666389,9.55105,-13.41592271,-13.41592272
242,0.0679175,9.56009,-11.90922278,-11.90922279
243,0.068166389,9.56905,-10.40329383,-10.40329384
244,0.068416667,9.57806,-4.892661878,-4.89266188
245,0.068668611,9.58713,-8.778026412,-8.778026416
246,0.069019444,9.59976,-13.0604278,-13.06042781
247,0.069355,9.61184,-15.24197002,-15.24197003
248,0.069602778,9.62076,-11.66373692,-11.66373693
249,0.069852222,9.62974,-15.15475288,-15.15475289
250,0.070101389,9.63871,-12.41795025,-12.41795026
251,0.070349722,9.64765,-15.2180791,-15.21807911
252,0.07071,9.66062,-17.74400793,-17.74400794
253,0.071053611,9.67299,-14.32479437,-14.32479438
254,0.071302778,9.68196,-12.89880773,-12.89880774
255,0.071550556,9.69088,-8.765408562,-8.765408567
256,0.071798333,9.6998,-6.06531841,-6.065318413
257,0.072050556,9.70888,-2.124960528,-2.124960529
258,0.072403056,9.72157,2.409960237,2.409960238
259,0.072743333,9.73382,4.001125751,4.001125753
260,0.072990556,9.74272,8.244474394,8.244474398
261,0.073236389,9.75157,7.758750731,7.758750735
262,0.073481111,9.76038,7.043484527,7.043484531
263,0.073732778,9.76944,5.890481164,5.890481167
264,0.074086389,9.78217,3.847933906,3.847933908
265,0.074427222,9.79444,2.634590944,2.634590945
266,0.0746775,9.80345,0.972707716,0.972707717
267,0.074927778,9.81246,2.601135454,2.601135455
268,0.075178056,9.82147,-2.138200129,-2.13820013
269,0.075425833,9.83039,-2.504927399,-2.5049274
270,0.075773889,9.84292,-2.31209905,-2.312099051
271,0.076111389,9.85507,-4.035960822,-4.035960824
272,0.076358611,9.86397,-5.185590709,-5.185590712
273,0.076606667,9.8729,-2.69278245,-2.692782452
274,0.076857778,9.88194,-6.753430288,-6.753430292
275,0.077110556,9.89104,-11.13693911,-11.13693912
276,0.077467222,9.90388,-15.3918643,-15.39186431
277,0.077816389,9.91645,-16.42224222,-16.42224223
278,0.078068333,9.92552,-15.89547503,-15.89547504
279,0.078316944,9.93447,-17.53222023,-17.53222024
280,0.078566389,9.94345,-22.89312693,-22.89312694
281,0.078815,9.9524,-24.83201177,-24.83201178
282,0.079161944,9.96489,-26.37030448,-26.3703045
283,0.079500278,9.97707,-29.09883026,-29.09883028
284,0.079748611,9.98601,-29.12174891,-29.12174893
285,0.079998056,9.99499,-28.62941774,-28.62941776
286,0.080246667,10.00394,-29.15685193,-29.15685195
287,0.080500833,10.01309,-31.26789382,-31.26789384
288,0.080858889,10.02598,-33.21147435,-33.21147437
289,0.081203611,10.03839,-30.45959126,-30.45959128
290,0.081456667,10.0475,-29.3763284,-29.37632842
291,0.081705833,10.05647,-27.62187855,-27.62187857
292,0.081958889,10.06558,-25.08139311,-25.08139313
293,0.082211389,10.07467,-23.67217401,-23.67217402
294,0.082560556,10.08724,-22.64314163,-22.64314164
295,0.082899167,10.09943,-25.07094814,-25.07094816
296,0.083145833,10.095845,-27.25408113,-27.25408115
297,0.083392778,10.0914,-28.46421416,-28.46421418
298,0.083641389,10.086925,-30.55039428,-30.5503943
299,0.0838925,10.082405,-32.59186702,-32.59186704
300,0.0842425,10.076105,-34.02179393,-34.02179395
301,0.084584444,10.06995,-32.88374177,-32.88374179
302,0.084830278,10.065525,-33.75771414,-33.75771416
303,0.085078889,10.06105,-30.95372031,-30.95372033
304,0.08533,10.05653,-27.98026494,-27.98026496
305,0.085580278,10.052025,-24.74635355,-24.74635357
306,0.085934722,10.045645,-21.77797017,-21.77797018
307,0.086275278,10.039515,-20.09395683,-20.09395684
308,0.086526667,10.03499,-20.78656286,-20.78656287
309,0.086777222,10.03048,-19.67422749,-19.6742275
310,0.087026667,10.02599,-20.33434413,-20.33434414
311,0.087275278,10.021515,-23.326856,-23.32685602
312,0.087623611,10.015245,-26.42953216,-26.42953218
313,0.087963333,10.00913,-23.67076886,-23.67076888
314,0.0882125,10.004645,-27.78851396,-27.78851398
315,0.088465833,10.000085,-25.52520918,-25.5252092
316,0.088716944,9.995565,-25.73731888,-25.7373189
317,0.088964444,9.99111,-26.00286257,-26.00286259
318,0.089319444,9.98472,-25.8695475,-25.86954752
319,0.089659167,9.978605,-22.57847893,-22.57847895
320,0.089904167,9.974195,-19.24362915,-19.24362916
321,0.090151944,9.969735,-16.62473206,-16.62473207
322,0.090405556,9.96517,-18.20494683,-18.20494684
323,0.090655278,9.960675,-16.79308294,-16.79308295
324,0.091000556,9.95446,-15.72975379,-15.7297538
325,0.091335833,9.948425,-18.02993646,-18.02993647
326,0.091585278,9.943935,-18.71921502,-18.71921503
327,0.091836944,9.939405,-22.67765359,-22.67765361
328,0.092088056,9.934885,-16.84362831,-16.84362832
329,0.09234,9.93035,-16.02228737,-16.02228738
330,0.092691944,9.924015,-14.59874758,-14.59874759
331,0.093033889,9.91786,-8.035498156,-8.035498162
332,0.093284167,9.913355,-2.41855941,-2.418559412
333,0.093532222,9.90889,0.71102457,0.711024571
334,0.09378,9.90443,2.251882299,2.251882301
335,0.094029722,9.899935,2.511827015,2.511827017
336,0.094379722,9.893635,2.297860586,2.297860588
337,0.094722222,9.88747,1.727541335,1.727541336
338,0.094974167,9.882935,0.495522119,0.495522119
339,0.095224167,9.878435,2.211267709,2.211267711
340,0.095474167,9.873935,1.895108923,1.895108924
341,0.095726667,9.86939,-2.199024092,-2.199024094
342,0.096081667,9.863,-6.425180009,-6.425180014
343,0.096420833,9.856895,-7.484171229,-7.484171235
344,0.096675833,9.852305,-8.587005402,-8.587005408
345,0.0969325,9.847685,-6.211855355,-6.21185536
346,0.097184722,9.843145,-5.942614014,-5.942614018
347,0.097434444,9.83865,-1.619842859,-1.61984286
348,0.097785,9.83234,3.476243223,3.476243226
349,0.098123889,9.82624,10.29356487,10.29356488
350,0.098371944,9.821775,9.017260248,9.017260255
351,0.098623889,9.81724,8.267517376,8.267517382
352,0.098876111,9.8127,5.875581808,5.875581813
353,0.09913,9.80813,3.296020739,3.296020742
354,0.099486667,9.80171,0.953000362,0.953000363
355,0.099830278,9.801491667,-0.086884601,-0.086884601
356,0.100078889,9.802983333,1.352730703,1.352730704
357,0.100330833,9.804495,-0.971101619,-0.97110162
358,0.100580278,9.805991667,-5.003977114,-5.003977118
359,0.100830556,9.807493333,-8.603444658,-8.603444665
360,0.101181389,9.809598333,-12.18328329,-12.1832833
361,0.101520278,9.811631667,-11.96943771,-11.96943772
362,0.101766389,9.813108333,-15.05662486,-15.05662487
363,0.102011111,9.814576667,-12.86950345,-12.86950346
364,0.102259444,9.816066667,-10.00201173,-10.00201174
365,0.102508056,9.817558333,-6.94890926,-6.948909266
366,0.102860833,9.819675,-4.431807408,-4.431807412
367,0.103204444,9.821736667,-5.182677666,-5.18267767
368,0.103452222,9.823223333,-5.996411208,-5.996411213
369,0.1037,9.82471,-9.999240322,-9.99924033
370,0.103951944,9.826221667,-9.256738692,-9.2567387
371,0.104201389,9.827718333,-9.685231811,-9.685231819
372,0.1045525,9.829825,-9.574849363,-9.574849371
373,0.104889722,9.831848333,-8.126098968,-8.126098975
374,0.10514,9.83335,-3.501850171,-3.501850174
375,0.105390278,9.834851667,-0.825211126,-0.825211127
376,0.105638611,9.836341667,3.773106205,3.773106208
377,0.105888333,9.83784,6.269470218,6.269470223
378,0.106241667,9.83996,8.83756777,8.837567777
379,0.1065825,9.842005,12.49923114,12.49923115
380,0.106833889,9.843513333,17.06662755,17.06662756
381,0.107086944,9.845031667,19.42534402,19.42534404
382,0.107336389,9.846528333,22.57899198,22.578992
383,0.107586944,9.848031667,22.47937812,22.47937814
384,0.107932222,9.850103333,21.9776387,21.97763872
385,0.108270556,9.852133333,19.98316939,19.98316941
386,0.108524444,9.853656667,21.36783419,21.36783421
387,0.108781111,9.855196667,21.24006337,21.24006339
388,0.1090325,9.856705,20.41452694,20.41452696
389,0.109280833,9.858195,18.00897937,18.00897939
390,0.109628056,9.860278333,15.92078323,15.92078324
391,0.109968889,9.862323333,16.05307405,16.05307406
392,0.1102175,9.863815,14.36935707,14.36935708
393,0.110465,9.8653,17.99486516,17.99486518
394,0.110714444,9.866796667,16.52873311,16.52873312
395,0.110964167,9.868295,16.16584198,16.16584199
396,0.111313889,9.870393333,15.9414506,15.94145061
397,0.111653056,9.872428333,18.31220821,18.31220823
398,0.111899722,9.873908333,19.60498326,19.60498328
