Meas,Time,Temperature,Vmax
1,0.666996389,9.509891667,11.69080611
2,0.667349444,9.520483333,14.28814907
3,0.667600556,9.528016667,14.1518819
4,0.667850833,9.535525,17.68706379
5,0.668105833,9.543175,20.09539684
6,0.668361944,9.550858333,18.22737051
7,0.668720278,9.561608333,16.93748651
8,0.669061667,9.57185,19.12071667
9,0.669310556,9.579316667,21.64136999
10,0.669556944,9.586708333,20.10768201
11,0.669811111,9.594333333,22.30097593
12,0.670063333,9.6019,22.67078432
13,0.670389444,9.611683333,22.55237008
14,0.670712778,9.621383333,21.8079123
15,0.670963333,9.6289,23.45489903
16,0.671216111,9.636483333,24.76084817
17,0.671463333,9.6439,26.0179001
18,0.671714167,9.651425,23.68554284
19,0.672068056,9.662041667,21.83538287
20,0.672416944,9.672508333,22.89475895
21,0.672666111,9.679983333,25.68700225
22,0.672921667,9.68765,26.37244141
23,0.673176389,9.695291667,29.49132619
24,0.673428333,9.70285,30.6610373
25,0.673779444,9.713383333,30.75550717
26,0.674123056,9.723691667,31.51629525
27,0.674374167,9.731225,29.55357069
28,0.674626111,9.738783333,26.83153189
29,0.674879444,9.746383333,26.24364698
30,0.6751325,9.753975,28.06702825
31,0.675486944,9.764608333,30.85256163
32,0.675825,9.77475,32.28571691
33,0.676072778,9.782183333,35.04252967
34,0.676329722,9.789891667,32.81288965
35,0.676582778,9.797483333,30.47160629
36,0.676832778,9.804983333,27.62856001
37,0.677171944,9.815158333,24.99520445
38,0.677507222,9.825216667,23.42531109
39,0.677757778,9.832733333,23.83106776
40,0.678007222,9.840216667,23.39153578
41,0.678256944,9.847708333,22.76827391
42,0.678513333,9.8554,19.02257772
43,0.678869722,9.866091667,14.8442529
44,0.679210556,9.876316667,13.83233618
45,0.679458333,9.88375,11.37100495
46,0.679707778,9.891233333,8.705394197
47,0.679959722,9.898791667,6.046178452
48,0.680210556,9.906316667,4.128561291
49,0.680565556,9.916966667,2.531157146
50,0.680909167,9.927275,0.976312391
51,0.681158889,9.934766667,0.404021166
52,0.681410833,9.942325,0.148684637
53,0.681666111,9.949983333,-1.795901486
54,0.681917222,9.957516667,-0.19135865
55,0.682270556,9.968116667,1.062954146
56,0.682614444,9.978433333,1.787705385
57,0.682863056,9.985891667,0.996032805
58,0.683113056,9.993391667,2.415740995
59,0.683363889,10.00036667,2.563901467
60,0.683615833,10.00339,2.200578509
61,0.683960278,10.00752333,1.620851136
62,0.684295833,10.01155,-0.895885427
63,0.684544167,10.01453,-2.184849288
64,0.684796667,10.01756,-2.849160291
65,0.685051389,10.02061667,-4.27442229
66,0.685301944,10.02362333,-5.500963618
67,0.6856525,10.02783,-6.167311494
68,0.685990556,10.03188667,-5.206524305
69,0.686241944,10.03490333,-2.097313394
70,0.686489722,10.03787667,-1.031465641
71,0.686737222,10.04084667,-3.775508732
72,0.686986667,10.04384,-4.398990826
73,0.687356944,10.04828333,-4.947156643
74,0.687708611,10.05250333,-4.786528847
75,0.687957778,10.05549333,-3.794577245
76,0.688207222,10.05848667,-3.922367282
77,0.688455278,10.06146333,-3.671829962
78,0.688703611,10.06444333,-3.575406062
79,0.689061389,10.06873667,-3.771340596
80,0.689408889,10.07290667,-3.886236815
81,0.6896575,10.07589,-6.147469021
82,0.689908611,10.07890333,-8.42223718
83,0.690158333,10.0819,-8.744383
84,0.6904075,10.08489,-9.90221054
85,0.690751389,10.08901667,-11.07493207
86,0.691087778,10.09305333,-11.72687108
87,0.691337778,10.09605333,-13.92464055
88,0.691586667,10.09904,-11.93534346
89,0.691838611,10.10206333,-9.827857492
90,0.692088056,10.10505667,-12.1238154
91,0.692439722,10.10927667,-14.70309242
92,0.692778056,10.11333667,-15.68336202
93,0.693025556,10.11630667,-17.79664558
94,0.693274167,10.11929,-15.21980731
95,0.693523333,10.12228,-15.6982012
96,0.693773889,10.12528667,-13.6835292
97,0.694120278,10.12944333,-11.52827641
98,0.694455278,10.13346333,-13.06768142
99,0.694705,10.13646,-14.47791719
100,0.6949525,10.13943,-14.16359222
101,0.695205,10.14246,-15.46525979
102,0.695455,10.14546,-15.4158151
103,0.695804167,10.14965,-15.20640162
104,0.696141389,10.15369667,-16.71460916
105,0.696391111,10.15669333,-15.21074668
106,0.696638333,10.15966,-18.26352708
107,0.696887222,10.16264667,-18.15590579
108,0.697136389,10.16563667,-20.76649541
109,0.697481944,10.16978333,-23.06630898
110,0.697821667,10.17386,-23.1663868
111,0.698071944,10.17686333,-23.66070755
112,0.6983225,10.17987,-24.10734612
113,0.698572778,10.18287333,-23.02639357
114,0.698824444,10.18589333,-22.36481086
115,0.699169444,10.19003333,-22.3563852
116,0.699503889,10.19404667,-21.96314094
117,0.6997525,10.19703,-22.66592045
118,0.700002222,10.20001333,-21.62892004
119,0.700248611,10.20149167,-22.39692986
120,0.700496944,10.20298167,-23.47783847
121,0.700826944,10.20496167,-24.39816619
122,0.701153056,10.20691833,-24.98749858
123,0.701401667,10.20841,-25.9914747
124,0.701650278,10.20990167,-23.64976385
125,0.701900833,10.211405,-22.52314685
126,0.702155833,10.212935,-24.23603478
127,0.702523889,10.21514333,-25.67867045
128,0.702870278,10.21722167,-22.74832488
129,0.703119444,10.21871667,-20.48096098
130,0.7033725,10.220235,-19.92173986
131,0.703623889,10.22174333,-17.69048015
132,0.703876944,10.22326167,-16.59268877
133,0.704235,10.22541,-15.92435641
134,0.704578889,10.22747333,-12.99467073
135,0.704830278,10.22898167,-13.53420442
136,0.705077778,10.23046667,-13.09868555
137,0.7053325,10.231995,-15.26050517
138,0.705585556,10.23351333,-17.82347426
139,0.7059375,10.235625,-19.65652561
140,0.706278611,10.23767167,-21.47174095
141,0.706526944,10.23916167,-19.59914532
142,0.706776389,10.24065833,-17.63825941
143,0.707026667,10.24216,-15.58898094
144,0.707274444,10.24364667,-14.07067215
145,0.707627222,10.24576333,-13.42578415
146,0.707968056,10.24780833,-12.09283188
147,0.708215278,10.24929167,-11.26334224
148,0.708464167,10.250785,-10.86011122
149,0.708716389,10.25229833,-11.28705285
150,0.708968611,10.25381167,-9.465213806
151,0.7093175,10.255905,-6.322356392
152,0.709656389,10.25793833,-4.300575066
153,0.709908056,10.25944833,-1.736864126
154,0.71016,10.26096,0.29065565
155,0.710408611,10.26245167,1.123882482
156,0.710660833,10.263965,2.180360809
157,0.711021944,10.26613167,2.948993404
158,0.711368889,10.26821333,1.577373513
159,0.711619167,10.269715,2.189859278
160,0.7118725,10.271235,3.535388281
161,0.712128889,10.27277333,4.26403102
162,0.712378611,10.27427167,6.771957851
163,0.712727778,10.27636667,9.121040681
164,0.713065556,10.27839333,9.490350165
165,0.713315,10.27989,9.637745651
166,0.713566389,10.28139833,9.63592848
167,0.713815,10.28289,9.438579744
168,0.714065278,10.28439167,8.688792428
169,0.714408889,10.28645333,7.923003607
170,0.714740556,10.28844333,6.891061871
171,0.714986389,10.28991833,7.860854651
172,0.715235,10.29141,8.5550697
173,0.715489167,10.292935,6.838867157
174,0.715739444,10.29443667,8.385479082
175,0.716095833,10.296575,10.10739461
176,0.716443889,10.29866333,10.44961686
177,0.716694167,10.299505,13.06656826
178,0.7169425,10.295035,17.14453469
179,0.717188611,10.290605,21.14563823
180,0.717436944,10.286135,22.22749724
181,0.717775278,10.280045,22.79607144
182,0.718105278,10.274105,22.54341995
183,0.718353333,10.26964,21.54370139
184,0.718606389,10.265085,22.37272492
185,0.718858056,10.260555,23.96328346
186,0.719112222,10.25598,22.39367149
187,0.719453611,10.249835,21.34737328
188,0.719790556,10.24377,21.52712268
189,0.720040278,10.239275,24.51379868
190,0.720289167,10.234795,27.65621179
191,0.720540278,10.230275,24.57965129
192,0.720788056,10.225815,24.83944474
193,0.721154167,10.219225,24.97636246
194,0.721506944,10.212875,21.75011542
195,0.721754444,10.20842,21.21403992
196,0.722005,10.20391,22.84392807
197,0.722254167,10.199425,23.76146271
198,0.722501944,10.194965,24.83991671
199,0.722846389,10.188765,25.39063241
200,0.723181667,10.18273,25.16767403
201,0.723428333,10.17829,21.94640954
202,0.723678889,10.17378,20.66268177
203,0.723931111,10.16924,17.45650059
204,0.724179444,10.16477,15.52252553
205,0.724535278,10.158365,13.88360389
206,0.724877778,10.1522,12.82901301
207,0.725127222,10.14771,13.33313485
208,0.725378333,10.14319,16.66858196
209,0.725630556,10.13865,19.22855631
210,0.725878889,10.13418,20.6658134
211,0.726248889,10.12752,21.82772689
212,0.726606389,10.121085,22.57804536
213,0.7268575,10.116565,25.50374831
214,0.7271075,10.112065,26.74103397
215,0.727356944,10.107575,27.03701544
216,0.727605278,10.103105,28.14246205
217,0.727951389,10.096875,29.28631192
218,0.728290278,10.090775,24.76444316
219,0.728538333,10.08631,21.69736117
220,0.7287875,10.081825,23.34225956
221,0.729042778,10.07723,19.53914509
222,0.729296667,10.07266,17.17857006
223,0.729641667,10.06645,14.92409198
224,0.729977222,10.06041,12.76040533
225,0.730225,10.05595,11.58602229
226,0.730476111,10.05143,7.370001211
227,0.7307275,10.046905,6.776215256
228,0.730980556,10.04235,6.262085614
229,0.731351389,10.035675,6.01895056
230,0.731704167,10.029325,7.606586412
231,0.731958333,10.02475,6.504808914
232,0.732208611,10.020245,7.787437138
233,0.732458056,10.015755,10.02810598
234,0.73271,10.01122,11.79181883
235,0.733063056,10.004865,12.76445927
236,0.733403611,10.00084333,11.87279874
237,0.733652222,10.00382667,11.41055702
238,0.733901667,10.00682,12.89283721
239,0.734153056,10.00983667,12.71480967
240,0.734406944,10.01288333,11.58459236
241,0.734761667,10.01714,11.04683918
242,0.735104167,10.02125,10.49201607
243,0.735353611,10.02424333,9.960542097
244,0.735603056,10.02723667,7.534305814
245,0.735853611,10.03024333,6.294652725
246,0.736104167,10.03325,5.560033919
247,0.736471944,10.03766333,4.609821092
248,0.7368275,10.04193,4.934923331
249,0.737078056,10.04493667,2.743186867
250,0.737332778,10.04799333,3.660648317
251,0.737584444,10.05101333,4.287457722
252,0.737835556,10.05402667,3.605758712
253,0.738188056,10.05825667,2.948797036
254,0.738526944,10.06232333,4.222107767
255,0.7387775,10.06533,4.071138127
256,0.739026944,10.06832333,2.448767629
257,0.739276667,10.07132,-0.739997261
258,0.739525,10.0743,-2.2685072
259,0.739861389,10.07833667,-3.482340131
260,0.740191944,10.08230333,-5.956729533
261,0.740440278,10.08528333,-9.044951394
262,0.740687222,10.08824667,-10.37241563
263,0.740933889,10.09120667,-10.79774578
264,0.741179722,10.09415667,-11.18776587
265,0.741546389,10.09855667,-12.15370606
266,0.741899722,10.10279667,-12.04353509
267,0.7421475,10.10577,-9.561752206
268,0.742396944,10.10876333,-5.702368739
269,0.742649722,10.11179667,-8.023175517
270,0.742899444,10.11479333,-6.706951986
271,0.743253056,10.11903667,-4.459205657
272,0.743595833,10.12315,-4.230132097
273,0.743846111,10.12615333,-4.381986456
274,0.744096111,10.12915333,-1.922212832
275,0.744348333,10.13218,-1.021047754
276,0.744598889,10.13518667,1.59323447
277,0.744957222,10.13948667,3.860918623
278,0.745306111,10.14367333,4.206182848
279,0.7455575,10.14669,5.607522187
280,0.745808611,10.14970333,8.134002421
281,0.746055556,10.15266667,9.998594792
282,0.746303333,10.15564,13.90562314
283,0.746673889,10.16008667,17.89159781
284,0.747027778,10.16433333,16.7364447
285,0.747276944,10.16732333,17.24940049
286,0.747533889,10.17040667,15.18329721
287,0.747784167,10.17341,15.99578599
288,0.748035278,10.17642333,14.5939159
289,0.748397222,10.18076667,13.13174929
290,0.748745556,10.18494667,12.32936281
291,0.748995,10.18794,12.40544446
292,0.749245278,10.19094333,14.40226777
293,0.749497778,10.19397333,15.83816747
294,0.749750556,10.19700667,12.86122789
295,0.750111667,10.19866,9.860491179
296,0.7504625,10.19445,9.766215786
297,0.750710278,10.19147667,9.28614528
298,0.750961111,10.18846667,12.0341284
299,0.751211111,10.18546667,14.83303841
300,0.751463333,10.18244,13.81904797
301,0.751826944,10.17807667,12.28666165
302,0.752179444,10.17384667,12.68605667
303,0.752428056,10.17086333,13.08530102
304,0.752677222,10.16787333,15.74181368
305,0.752924167,10.16491,17.19469202
306,0.753176389,10.16188333,16.33426104
307,0.753529722,10.15764333,15.9649196
308,0.753872778,10.15352667,16.45951451
309,0.754123056,10.15052333,19.51401501
310,0.754371389,10.14754333,22.63295552
311,0.754618889,10.14457333,21.24986596
312,0.754870278,10.14155667,24.83267207
313,0.755241389,10.13710333,28.38423859
314,0.755597778,10.13282667,26.87974652
315,0.755844722,10.12986333,27.92209137
316,0.756093889,10.12687333,28.96829656
317,0.756347222,10.12383333,30.00494142
318,0.756601944,10.12077667,31.05664237
319,0.756957222,10.11651333,32.07144818
320,0.757299167,10.11241,32.22119106
321,0.757549444,10.10940667,31.72378447
322,0.757798889,10.10641333,32.05407578
323,0.75805,10.1034,29.02432667
324,0.758301389,10.10038333,26.23328173
325,0.758637778,10.09634667,23.59336534
326,0.758964167,10.09243,21.04922098
327,0.759213333,10.08944,22.07637015
328,0.759464722,10.08642333,22.3996996
329,0.759718056,10.08338333,21.80014267
330,0.759971667,10.08034,22.8128337
331,0.760298889,10.07641333,23.30449382
332,0.7606225,10.07253,22.49155637
333,0.760872778,10.06952667,23.6648385
334,0.761124167,10.06651,22.60681424
335,0.761371667,10.06354,20.46716437
336,0.761623611,10.06051667,18.36791444
337,0.761959167,10.05649,16.57242343
338,0.762286389,10.05256333,15.89100471
339,0.762539444,10.04952667,11.49770372
340,0.762791389,10.04650333,9.467111988
341,0.763039167,10.04353,6.070600645
342,0.763287778,10.04054667,5.129509267
343,0.763635,10.03638,4.23664427
344,0.763972222,10.03233333,4.100901938
345,0.764226389,10.02928333,0.85700772
346,0.764479167,10.02625,0.388351269
347,0.764729722,10.02324333,-2.482067334
348,0.764980833,10.02023,-2.087688546
349,0.765325278,10.01609667,-1.70758925
350,0.765666111,10.01200667,-2.199794473
351,0.765917222,10.00899333,-6.408713437
352,0.766167222,10.00599333,-7.040977001
353,0.766414722,10.00302333,-8.057361604
354,0.766664167,10.00003,-6.730955861
355,0.767004167,10.002025,-5.981833857
356,0.767341111,10.00404667,-6.126255501
357,0.767589722,10.00553833,-7.365666521
358,0.7678425,10.007055,-7.68913426
359,0.768092222,10.00855333,-8.190959209
360,0.768344167,10.010065,-10.87761123
361,0.7687125,10.012275,-12.55430106
362,0.769060833,10.014365,-11.50555088
363,0.7693075,10.015845,-8.740883184
364,0.769556667,10.01734,-9.788114475
365,0.769810833,10.018865,-9.802525988
366,0.770060556,10.02036333,-8.101448709
367,0.770415833,10.022495,-6.398712059
368,0.7707575,10.024545,-6.350723379
369,0.771009722,10.02605833,-6.523393767
370,0.771261389,10.02756833,-6.353897931
371,0.7715125,10.029075,-4.375910692
372,0.771765278,10.03059167,-4.096737966
373,0.772118333,10.03271,-4.607442487
374,0.772458056,10.03474833,-3.533148969
375,0.772707778,10.03624667,-4.978975233
376,0.772954444,10.03772667,-7.366490176
377,0.773206389,10.03923833,-8.56508327
378,0.773456667,10.04074,-11.08757249
379,0.773815278,10.04289167,-13.09988729
380,0.774161111,10.04496667,-13.59841553
381,0.774409167,10.046455,-15.05555977
382,0.774659167,10.047955,-17.56453568
383,0.774908889,10.04945333,-17.46554599
384,0.775156667,10.05094,-17.28825567
385,0.775513333,10.05308,-16.98995849
386,0.775859722,10.05515833,-17.17447025
387,0.776111111,10.05666667,-17.81647698
388,0.776364444,10.05818667,-13.77265926
389,0.776611667,10.05967,-13.32338811
390,0.776861389,10.06116833,-11.5150299
391,0.777212222,10.06327333,-9.467904173
392,0.777558889,10.06535333,-8.496298047
393,0.777809722,10.06685833,-9.827014662
394,0.778061111,10.06836667,-9.605956299
395,0.778315,10.06989,-9.56933079
396,0.7785625,10.071375,-8.510630149
397,0.778899722,10.07339833,-7.890474492
398,0.779229722,10.07537833,-7.85177437
399,0.779478333,10.07687,-8.228583809
400,0.779726944,10.07836167,-5.976199985
401,0.779976667,10.07986,-3.359135898
402,0.780223333,10.08134,-0.995643147
403,0.780575,10.08345,1.924509233
404,0.78092,10.08552,2.569862063
405,0.781170556,10.08702333,3.542376334
406,0.781420833,10.088525,3.332173508
407,0.781669444,10.09001667,1.689987047
408,0.781917222,10.09150333,0.047016429
409,0.782263611,10.09358167,-2.465187488
410,0.7826025,10.095615,-3.721683938
411,0.782851944,10.09711167,-3.695622888
412,0.783098889,10.09859333,-1.104063205
413,0.783346389,10.10007833,0.899274526
414,0.783596667,10.10158,-4.578520158
415,0.783940833,10.103645,-9.807382191
416,0.784282778,10.10569667,-10.91645846
417,0.784532222,10.10719333,-13.02421365
418,0.784781667,10.10869,-10.50091643
419,0.785036667,10.11022,-8.468582219
420,0.785286944,10.11172167,-7.017240203
421,0.785647778,10.11388667,-5.25561205
422,0.785995,10.11597,-5.700570814
423,0.786241944,10.11745167,-4.36218015
424,0.786491111,10.11894667,-2.570749124
425,0.7867425,10.120455,-1.952150779
426,0.786993889,10.12196333,-1.993016703
427,0.787331944,10.12399167,-2.093271978
428,0.787663611,10.12598167,-1.487728662
429,0.787915833,10.127495,-0.937426474
430,0.788166389,10.12899833,1.678880539
431,0.788414722,10.13048833,1.074108791
432,0.788662222,10.13197333,2.778077064
433,0.789017222,10.13410333,4.588275981
434,0.789361389,10.13616833,6.214543358
435,0.789610833,10.137665,6.815708985
436,0.789864722,10.13918833,8.126618003
437,0.790116111,10.14069667,7.666010837
438,0.790368056,10.14220833,9.493562918
439,0.7907,10.1442,11.36772014
440,0.7910225,10.146135,12.63554667
441,0.791268333,10.14761,12.77741538
442,0.791515278,10.14909167,14.24536839
443,0.791764444,10.15058667,12.77152609
444,0.792015,10.15209,12.11469461
445,0.792375,10.15425,11.47157751
446,0.792725,10.15635,11.47365007
447,0.792974444,10.15784667,11.40723703
448,0.793221944,10.15933167,11.13863414
449,0.793471389,10.16082833,13.15510912
450,0.7937225,10.162335,13.69460213
451,0.79407,10.16442,13.76433329
452,0.794407778,10.16644667,14.58247022
453,0.794656667,10.16794,13.57431729
454,0.794909722,10.16945833,12.14583193
455,0.795158333,10.17095,11.33274303
456,0.795406667,10.17244,11.99852765
457,0.795748611,10.17449167,12.89689503
458,0.796081944,10.17649167,15.87071137
459,0.796328889,10.17797333,14.40824014
460,0.79658,10.17948,11.0495214
461,0.796834722,10.18100833,12.00788152
462,0.797085,10.18251,10.44926118
463,0.797426111,10.18455667,9.121615409
464,0.7977625,10.186575,9.929548127
465,0.798015556,10.18809333,8.904276075
466,0.798266667,10.1896,11.86822199
467,0.798516389,10.19109833,11.83036731
468,0.798770278,10.19262167,9.754043798
469,0.799120278,10.19472167,7.321608743
470,0.799455556,10.19673333,5.770985684
471,0.799705,10.19823,1.3065732
472,0.799953333,10.19972,-0.579523293
473,0.800206667,10.19752,-6.184591441
474,0.800461667,10.19446,-6.973846701
475,0.800810833,10.19027,-7.914716018
476,0.801146944,10.18623667,-9.829460524
477,0.8013925,10.18329,-10.58519505
478,0.801641111,10.18030667,-12.07477125
479,0.801887778,10.17734667,-12.98746939
480,0.8021375,10.17435,-15.34829093
481,0.8024825,10.17021,-17.52674417
482,0.80282,10.16616,-18.20745164
483,0.8030675,10.16319,-17.38896273
484,0.803319722,10.16016333,-16.47023457
485,0.803569444,10.15716667,-17.33193464
486,0.803820556,10.15415333,-15.34434145
487,0.804161111,10.15006667,-12.7773594
488,0.804495556,10.14605333,-14.33657708
489,0.804745,10.14306,-11.74296702
490,0.8049975,10.14003,-12.13886402
491,0.805253889,10.13695333,-8.696731814
492,0.805504444,10.13394667,-7.82028857
493,0.805848333,10.12982,-7.860409306
494,0.806183333,10.1258,-8.441299384
495,0.806435556,10.12277333,-10.37990889
496,0.806688611,10.11973667,-10.95428623
497,0.806939722,10.11672333,-10.91441881
498,0.807186389,10.11376333,-13.26072634
499,0.807533889,10.10959333,-15.03207616
500,0.807871389,10.10554333,-15.96554119
501,0.808125,10.1025,-13.59718356
502,0.808376389,10.09948333,-12.90858802
503,0.808632222,10.09641333,-11.80887362
504,0.808884722,10.09338333,-11.52306415
