Meas,Time,Temperature,Vmax
1,3.133591944,11.50155167,2773.312841
2,3.133843333,11.50306,2806.605871
3,3.134098056,11.50458833,2831.77515
4,3.134350278,11.50610167,2838.018138
5,3.134601667,11.50761,2888.620544
6,3.134935833,11.509615,2931.3015
7,3.135263056,11.51157833,2961.209033
8,3.135512778,11.51307667,2984.169611
9,3.135765,11.51459,2968.194653
10,3.136016389,11.51609833,2961.813745
11,3.136265556,11.51759333,2970.547501
12,3.136598333,11.51959,2968.238719
13,3.136926944,11.52156167,2997.383239
14,3.137175833,11.523055,3042.438249
15,3.137423333,11.52454,3021.32179
16,3.137669722,11.52601833,3008.667165
17,3.137918333,11.52751,2980.067393
18,3.138246389,11.52947833,2964.829055
19,3.1385725,11.531435,3038.877405
20,3.138821389,11.53292833,3060.596681
21,3.13907,11.53442,3041.787554
22,3.139321944,11.53593167,3055.433651
23,3.1395725,11.537435,3072.647698
24,3.139901111,11.53940667,3086.15191
25,3.140224722,11.54134833,3107.584476
26,3.140475278,11.54285167,3137.590202
27,3.140725556,11.54435333,3143.856332
28,3.1409775,11.545865,3133.387874
29,3.141226944,11.54736167,3168.492795
30,3.141551667,11.54931,3180.566948
31,3.141875,11.55125,3207.023792
32,3.142128889,11.55277333,3187.125009
33,3.142376667,11.55426,3172.803675
34,3.142624167,11.555745,3122.356289
35,3.142877222,11.55726333,3110.87437
36,3.143207222,11.55924333,3100.722133
37,3.143535278,11.56121167,3111.023047
38,3.143783056,11.56269833,3091.148014
39,3.144030556,11.56418333,3079.628655
40,3.144280278,11.56568167,3053.831825
41,3.144528333,11.56717,3074.089823
42,3.144859167,11.569155,3103.404104
43,3.145183889,11.57110333,3149.012213
44,3.145434722,11.57260833,3140.081811
45,3.145683611,11.57410167,3130.727902
46,3.145936944,11.57562167,3161.736215
47,3.146188889,11.57713333,3178.129612
48,3.146519722,11.57911833,3175.497657
49,3.146845556,11.58107333,3190.369941
50,3.147097222,11.58258333,3167.517623
51,3.147344722,11.58406833,3124.931065
52,3.147591667,11.58555,3084.592546
53,3.147843333,11.58706,3083.737296
54,3.148168889,11.58901333,3094.129065
55,3.148485278,11.59091167,3096.688052
56,3.148733611,11.59240167,3090.865866
57,3.148979722,11.59387833,3055.34835
58,3.149229722,11.59537833,3049.456787
59,3.149481111,11.59688667,3008.660428
60,3.149814444,11.59888667,2979.737371
61,3.150141667,11.6,3006.948353
62,3.150389167,11.6,3023.415753
63,3.150636111,11.6,3027.069788
64,3.150884444,11.6,3049.821888
65,3.151138611,11.6,3032.156744
66,3.151473056,11.6,2999.936744
67,3.151800278,11.6,3034.985766
68,3.152047778,11.6,3029.71527
69,3.152296389,11.6,3040.885821
70,3.152545833,11.6,3024.659005
71,3.152795,11.6,3006.570265
72,3.153124167,11.6,2975.583881
73,3.153451389,11.6,2987.047951
74,3.153701389,11.6,2980.740966
75,3.153952222,11.6,2969.185388
76,3.154205833,11.6,2950.615392
77,3.154452778,11.6,2941.034334
78,3.154778889,11.6,2928.521576
79,3.155099722,11.6,2946.08532
80,3.155348056,11.6,2944.840647
81,3.155601111,11.6,2917.752874
82,3.155850556,11.6,2904.270477
83,3.156100278,11.6,2904.797085
84,3.156436389,11.6,2912.249068
85,3.156766389,11.6,2923.469475
86,3.157014167,11.6,2921.65175
87,3.1572625,11.6,2895.902967
88,3.157512778,11.6,2903.679735
89,3.157764167,11.6,2894.172628
90,3.158093056,11.6,2900.904505
91,3.158419444,11.6,2944.518918
92,3.158666944,11.6,2973.397682
93,3.158916111,11.6,2986.877311
94,3.159162778,11.6,2994.638955
95,3.159413333,11.6,2999.864234
96,3.159749722,11.6,2989.489972
97,3.160079722,11.6,3015.716873
98,3.16033,11.6,3024.366557
99,3.1605775,11.6,3019.721386
100,3.160825,11.6,3015.889611
101,3.1610775,11.6,2990.106791
102,3.161411944,11.6,2971.392204
103,3.161740833,11.6,3030.231773
104,3.161989167,11.6,3044.848641
105,3.162241667,11.6,3054.694985
106,3.162495278,11.6,3042.18367
107,3.162746111,11.6,3011.762706
108,3.163071944,11.6,2982.448696
109,3.163394722,11.6,3024.579749
110,3.163645278,11.6,3024.075425
111,3.163893611,11.6,3007.842188
112,3.16414,11.6,2990.736012
113,3.164387778,11.6,2983.725632
114,3.164720556,11.6,2962.671477
115,3.165043889,11.6,2961.778371
116,3.1652925,11.6,2965.993612
117,3.165541111,11.6,2973.280496
118,3.165789444,11.6,2945.955422
119,3.16604,11.6,2948.86745
120,3.166371667,11.6,2949.764429
121,3.166698056,11.6,3006.561044
122,3.166944444,11.6,2995.94152
123,3.167193056,11.6,2980.215765
124,3.167442222,11.6,2960.019755
125,3.167692222,11.6,2983.243684
126,3.168021111,11.6,2993.169222
127,3.168344167,11.6,3001.978664
128,3.168591944,11.6,2990.477226
129,3.168843056,11.6,2966.95548
130,3.169091667,11.6,2952.656954
131,3.169341389,11.6,2926.145795
132,3.169668333,11.6,2912.543009
133,3.169991111,11.6,2947.18962
134,3.170240278,11.6,2970.051786
135,3.170488611,11.6,2935.920194
136,3.170735556,11.6,2900.742024
137,3.170983056,11.6,2880.628706
138,3.171310556,11.6,2859.774178
139,3.171634722,11.6,2908.005135
140,3.171879722,11.6,2913.075111
141,3.172124722,11.6,2878.727373
142,3.172373889,11.6,2881.866927
143,3.1726225,11.6,2854.788328
144,3.172945833,11.6,2835.847714
145,3.173266389,11.6,2888.122727
146,3.173514444,11.6,2915.0412
147,3.173761944,11.6,2917.535822
148,3.174013056,11.6,2919.20073
149,3.174266389,11.6,2927.677595
150,3.1745925,11.6,2908.846652
151,3.174915278,11.6,2928.556181
152,3.175161944,11.6,2924.937915
153,3.175411111,11.6,2909.828684
154,3.175660556,11.6,2876.341237
155,3.175913611,11.6,2871.978785
156,3.176245556,11.6,2886.718423
157,3.176571944,11.6,2933.51473
158,3.176823056,11.6,2927.119239
159,3.1770725,11.6,2949.385991
160,3.1773225,11.6,2948.422716
161,3.177571389,11.6,2944.178858
162,3.177895,11.6,2936.349218
163,3.178217222,11.6,3016.059085
164,3.178468889,11.6,3007.325787
165,3.17872,11.6,2994.169911
166,3.178969444,11.6,2985.52279
167,3.179217778,11.6,2983.93372
168,3.179549444,11.6,2960.606708
169,3.179875833,11.6,2984.836404
170,3.180124444,11.6,2978.012318
171,3.180371111,11.6,2947.833752
172,3.180619722,11.6,2912.373598
173,3.18087,11.6,2913.593793
174,3.181195278,11.6,2925.909599
175,3.181517778,11.6,2931.454711
176,3.1817675,11.6,2905.278524
177,3.182021111,11.6,2904.711502
178,3.182271944,11.6,2878.118744
179,3.182523056,11.6,2851.419092
180,3.182849722,11.6,2823.259696
181,3.183175278,11.6,2828.077917
182,3.183427222,11.60056333,2844.744512
183,3.183674167,11.602045,2856.358892
184,3.183921111,11.60352667,2855.821279
185,3.184169722,11.60501833,2826.890061
186,3.184495556,11.60697333,2789.841566
187,3.184816389,11.60889833,2811.953482
188,3.185065,11.61039,2808.950748
189,3.185315278,11.61189167,2808.042061
190,3.185563889,11.61338333,2780.625854
191,3.185815,11.61489,2742.751707
192,3.1861475,11.616885,2703.292073
193,3.186479444,11.61887667,2737.283632
194,3.186733333,11.6204,2725.858451
195,3.186985556,11.62191333,2713.858291
196,3.187235833,11.623415,2720.026603
197,3.187484444,11.62490667,2707.248373
198,3.187811667,11.62687,2672.42661
199,3.188136944,11.62882167,2675.251372
200,3.188386389,11.63031833,2654.202604
201,3.188636944,11.63182167,2617.849601
202,3.188886111,11.63331667,2577.545276
203,3.189136667,11.63482,2582.255903
204,3.18947,11.63682,2607.757779
205,3.189790556,11.63874333,2650.522896
206,3.190035833,11.640215,2654.861343
207,3.190284167,11.641705,2675.848859
208,3.190536389,11.64321833,2673.867331
209,3.190786944,11.64472167,2651.120328
210,3.191114722,11.64668833,2617.265188
211,3.191435556,11.64861333,2627.494281
212,3.191687778,11.65012667,2646.859231
213,3.191939167,11.651635,2659.585476
214,3.192188611,11.65313167,2649.216096
215,3.192439722,11.65463833,2645.881794
216,3.192773056,11.65663833,2664.051633
217,3.193098333,11.65859,2693.794328
218,3.193346111,11.66007667,2712.756376
219,3.193593889,11.66156333,2733.16792
220,3.193842222,11.66305333,2748.836286
221,3.194091111,11.66454667,2734.142454
222,3.194416111,11.66649667,2711.950189
223,3.194738056,11.66842833,2780.726215
224,3.194983333,11.6699,2799.911244
225,3.195232778,11.67139667,2834.363724
226,3.1954825,11.672895,2856.155827
227,3.195729167,11.674375,2855.689102
228,3.196051667,11.67631,2844.106966
229,3.1963725,11.678235,2890.392789
230,3.196623889,11.67974333,2881.350688
231,3.1968725,11.681235,2900.03572
232,3.197121667,11.68273,2888.507467
233,3.197365833,11.684195,2903.658794
234,3.197695556,11.68617333,2922.134045
235,3.198018056,11.68810833,2949.360537
236,3.198263056,11.68957833,2956.978857
237,3.198512222,11.69107333,2968.63357
238,3.198763889,11.69258333,2956.698537
239,3.199014167,11.694085,2940.671701
240,3.199335,11.69601,2926.57043
241,3.199655556,11.69793333,2995.582289
242,3.199909722,11.69945833,2998.095054
243,3.200158056,11.70094833,3000.045549
244,3.200403056,11.70241833,2975.989756
245,3.200651667,11.70391,2983.336151
246,3.200978889,11.70587333,2970.485637
247,3.201301944,11.70781167,2995.579884
248,3.201549722,11.70929833,2981.205112
249,3.201798056,11.71078833,2970.60642
250,3.202047778,11.71228667,2981.482663
251,3.202301111,11.71380667,2951.455374
252,3.2026325,11.715795,2932.079728
253,3.202957222,11.71774333,2956.208378
254,3.203207222,11.71924333,2984.609483
255,3.203455833,11.720735,2992.385518
256,3.203705556,11.72223333,2974.480171
257,3.203953056,11.72371833,2978.639913
258,3.204279167,11.725675,2988.030665
259,3.204598333,11.72759,3064.039159
260,3.204847778,11.72908667,3099.619474
261,3.205094167,11.730565,3074.136845
262,3.205341111,11.73204667,3108.742871
263,3.205588333,11.73353,3081.552968
264,3.205919167,11.735515,3048.578576
265,3.206241667,11.73745,3100.264219
266,3.206489167,11.738935,3108.173622
267,3.206739167,11.740435,3129.6075
268,3.206986667,11.74192,3140.680981
269,3.207234167,11.743405,3144.900608
270,3.207556944,11.74534167,3134.312605
271,3.2078775,11.747265,3163.21163
272,3.208126944,11.74876167,3156.55795
273,3.208377222,11.75026333,3143.841502
274,3.208628333,11.75177,3143.909634
275,3.208878056,11.75326833,3145.126506
276,3.209209722,11.75525833,3157.310968
277,3.209536944,11.75722167,3209.955104
278,3.209785556,11.75871333,3207.345094
279,3.210036667,11.76022,3226.957081
280,3.210292222,11.76175333,3232.256009
281,3.210543889,11.76326333,3237.612846
282,3.210872778,11.76523667,3230.966708
283,3.211197222,11.76718333,3289.664762
284,3.211445556,11.76867333,3295.022179
285,3.211694444,11.77016667,3269.190758
286,3.211940556,11.77164333,3258.501887
287,3.212190278,11.77314167,3227.131426
288,3.212520278,11.77512167,3190.761232
289,3.212841944,11.77705167,3211.359406
290,3.213087778,11.77852667,3204.767124
291,3.213333611,11.78000167,3190.711246
292,3.213583889,11.78150333,3178.186717
293,3.213834167,11.783005,3163.970063
294,3.214165556,11.78499333,3166.135347
295,3.214492778,11.78695667,3219.136432
296,3.214740833,11.788445,3245.120111
297,3.214990278,11.78994167,3268.483799
298,3.215239444,11.79143667,3255.530804
299,3.215484167,11.792905,3270.508185
300,3.215815,11.79489,3280.250173
301,3.216141944,11.79685167,3288.377497
302,3.216389722,11.79833833,3296.591416
303,3.216637778,11.79982667,3301.794527
304,3.216885833,11.8,3298.600078
305,3.217134444,11.8,3303.783417
306,3.217463333,11.8,3285.012858
307,3.217790556,11.8,3295.32102
308,3.218041667,11.8,3303.747818
309,3.218289444,11.8,3281.73615
310,3.218537778,11.8,3272.521078
311,3.218786667,11.8,3228.708488
312,3.21911,11.8,3199.486837
313,3.219426389,11.8,3236.879272
314,3.219675556,11.8,3220.251992
315,3.219924167,11.8,3213.060271
316,3.220171944,11.8,3197.461544
317,3.220423056,11.8,3172.063473
318,3.220750278,11.8,3142.38962
319,3.221072778,11.8,3141.405488
320,3.221322222,11.8,3099.217784
321,3.221573611,11.8,3048.459369
322,3.221825833,11.8,2975.896995
323,3.222073333,11.8,2946.199091
324,3.222398611,11.8,2944.253545
325,3.222725,11.8,2986.059668
326,3.222975278,11.8,2941.039974
327,3.223219167,11.8,2930.329654
328,3.223466944,11.8,2891.955589
329,3.223717222,11.8,2838.791431
330,3.224053333,11.8,2772.226929
331,3.224377778,11.8,2740.395346
332,3.224631667,11.8,2719.261646
333,3.224884167,11.8,2688.24234
334,3.225133611,11.8,2630.479319
335,3.225389167,11.8,2594.932035
336,3.225716389,11.8,2599.993235
337,3.226038056,11.8,2617.406016
338,3.226286389,11.8,2571.552428
339,3.226534167,11.8,2551.547602
340,3.226784722,11.8,2524.361153
341,3.227032222,11.8,2490.290218
342,3.227364722,11.8,2463.935142
343,3.227691111,11.8,2496.895836
344,3.2279375,11.8,2487.828289
345,3.228183333,11.8,2485.418254
346,3.228431944,11.8,2469.789859
347,3.228681667,11.8,2466.532259
348,3.229007778,11.8,2449.143172
349,3.22933,11.8,2460.072246
350,3.22958,11.8,2401.655875
351,3.229829167,11.8,2357.520616
352,3.230076944,11.8,2304.283591
353,3.230327222,11.8,2289.554552
354,3.230662778,11.8,2310.949962
355,3.230989722,11.8,2333.887601
356,3.23124,11.8,2325.74389
357,3.231489444,11.8,2318.037087
358,3.231738056,11.8,2288.724206
359,3.231987778,11.8,2237.093008
360,3.232323056,11.8,2199.649625
361,3.232650833,11.8,2231.677727
362,3.232899167,11.8,2234.225227
363,3.233148889,11.8,2249.810512
364,3.233398889,11.80039333,2230.952308
365,3.233647778,11.80188667,2206.993632
366,3.233976667,11.80386,2164.56673
367,3.234306667,11.80584,2164.278886
368,3.234556111,11.80733667,2116.458052
369,3.234805556,11.80883333,2075.512168
370,3.235052222,11.81031333,2063.235889
371,3.235298889,11.81179333,2015.746071
372,3.235627778,11.81376667,1965.864492
373,3.235953056,11.81571833,1955.629248
374,3.2362,11.8172,1938.167669
375,3.236448333,11.81869,1927.45593
376,3.236697778,11.82018667,1904.021952
377,3.236949722,11.82169833,1900.822936
378,3.237274167,11.823645,1926.919292
379,3.237593333,11.82556,1988.846797
380,3.237843611,11.82706167,2022.571533
381,3.238093056,11.82855833,1976.470222
382,3.238345278,11.83007167,1985.693541
383,3.238594722,11.83156833,1969.846184
384,3.238926389,11.83355833,1947.034459
385,3.239251667,11.83551,1958.155108
386,3.239498611,11.83699167,1972.33297
387,3.23975,11.8385,1966.24072
388,3.24,11.84,1960.322384
389,3.240253056,11.84151833,1966.243661
390,3.240584722,11.84350833,1964.331489
391,3.240910833,11.845465,1991.037644
392,3.241159444,11.84695667,1980.943764
393,3.241406944,11.84844167,1962.996324
394,3.241651944,11.84991167,1953.197972
395,3.241896944,11.85138167,1943.935959
396,3.242224167,11.853345,1946.045985
397,3.242548333,11.85529,1988.67973
398,3.242795833,11.856775,1983.61498
399,3.243044444,11.85826667,1989.887117
400,3.243292222,11.85975333,1958.345461
401,3.243539167,11.861235,1975.948083
402,3.243868056,11.86320833,1975.951887
403,3.244193333,11.86516,1984.835718
404,3.244441111,11.86664667,1989.170986
405,3.244690556,11.86814333,1970.153931
406,3.244945,11.86967,1945.055224
407,3.2452,11.8712,1926.74502
408,3.245533611,11.87320167,1922.164924
409,3.245858333,11.87515,1944.777693
410,3.246104167,11.876625,1949.200074
411,3.246354167,11.878125,1920.306442
412,3.246605833,11.879635,1926.703493
413,3.246855833,11.881135,1923.171152
414,3.247182222,11.88309333,1935.964296
415,3.247505556,11.88503333,2017.51894
416,3.247755833,11.886535,2046.574057
417,3.248005556,11.88803333,2066.148252
418,3.248255833,11.889535,2085.162377
419,3.248506944,11.89104167,2138.431309
420,3.248827778,11.89296667,2184.160902
421,3.249146389,11.89487833,2234.280445
422,3.249396111,11.89637667,2246.884654
423,3.249645833,11.897875,2286.30635
424,3.249895833,11.899375,2273.191182
425,3.250146389,11.9,2309.944957
426,3.250475,11.9,2340.197306
427,3.250801111,11.9,2390.787095
428,3.251053611,11.9,2433.530186
429,3.251304722,11.9,2456.440467
430,3.251554167,11.9,2494.366526
431,3.251802778,11.9,2516.585595
432,3.252130833,11.9,2541.304553
433,3.2524525,11.9,2586.473871
434,3.252699167,11.9,2607.258821
435,3.252948056,11.9,2644.277131
436,3.253194444,11.9,2648.789758
437,3.253442778,11.9,2670.203804
438,3.253773611,11.9,2701.637278
439,3.254101111,11.9,2764.293474
440,3.254353056,11.9,2742.356326
441,3.254606111,11.9,2736.514054
442,3.254854167,11.9,2710.825127
443,3.255098889,11.9,2719.422043
444,3.255432222,11.9,2743.089773
445,3.255760278,11.9,2800.704426
446,3.2560125,11.9,2787.815932
447,3.256262778,11.9,2795.350608
448,3.256513333,11.9,2778.876957
449,3.256763889,11.9,2773.591467
450,3.2570925,11.9,2777.330302
451,3.257415833,11.9,2808.988096
452,3.257664444,11.9,2846.627791
453,3.257914722,11.9,2836.186281
454,3.258164444,11.9,2828.747311
455,3.258413889,11.9,2849.788449
456,3.258743056,11.9,2880.480182
457,3.259070556,11.9,2935.687531
458,3.259320556,11.9,2910.670398
459,3.259570556,11.9,2897.296462
460,3.25982,11.9,2869.71002
461,3.260068889,11.9,2854.191846
462,3.260393889,11.9,2855.718595
463,3.260717222,11.9,2917.755103
464,3.260968333,11.9,2934.847752
465,3.26122,11.9,2928.479603
466,3.261468611,11.9,2917.317443
467,3.261716111,11.9,2915.435812
468,3.262047778,11.9,2915.686502
469,3.262374167,11.9,2950.418435
470,3.262623333,11.9,2961.335053
471,3.262872778,11.9,2936.649667
472,3.263118611,11.9,2893.36442
473,3.263365278,11.9,2896.223456
474,3.263695278,11.9,2943.856
475,3.264019722,11.9,3012.162504
476,3.264268889,11.9,3037.280166
477,3.2645175,11.9,3052.224751
478,3.264763611,11.9,3075.926557
479,3.265015556,11.9,3074.761053
480,3.265343333,11.9,3072.761219
481,3.265665278,11.9,3113.224913
482,3.265914722,11.9,3140.857326
483,3.266162222,11.9,3198.151717
484,3.266408333,11.9,3243.715606
485,3.2666575,11.9,3261.037947
486,3.266990278,11.90194167,3262.732408
487,3.267320833,11.903925,3295.806284
488,3.267569444,11.90541667,3284.488265
489,3.267816389,11.90689833,3270.212841
490,3.268064167,11.908385,3275.254872
491,3.268311389,11.90986833,3267.516121
492,3.268641389,11.91184833,3250.857705
493,3.268964167,11.913785,3275.920648
494,3.269213333,11.91528,3251.575783
495,3.269462778,11.91677667,3233.496386
496,3.269711944,11.91827167,3204.974755
497,3.269958889,11.91975333,3196.680338
498,3.270280833,11.921685,3204.29319
499,3.270601111,11.92360667,3258.669275
500,3.270848333,11.92509,3257.406066
501,3.271097222,11.92658333,3253.273942
502,3.271346944,11.92808167,3233.350853
503,3.271598056,11.92958833,3211.185284
504,3.271930833,11.931585,3199.555154
505,3.272255833,11.933535,3235.504905
506,3.272506389,11.93503833,3240.677055
507,3.272756667,11.93654,3221.851818
508,3.273006389,11.93803833,3208.195145
509,3.273255833,11.939535,3194.197776
510,3.273581944,11.94149167,3170.038149
511,3.2739075,11.943445,3205.107798
512,3.274156667,11.94494,3209.685832
513,3.274406389,11.94643833,3213.567576
514,3.274659167,11.947955,3191.876051
515,3.274909722,11.94945833,3193.938997
516,3.275235556,11.95141333,3189.239674
517,3.275558611,11.95335167,3215.042031
518,3.275815,11.95489,3205.675239
519,3.276068889,11.95641333,3186.221019
520,3.276319444,11.95791667,3167.743363
521,3.276571667,11.95943,3157.806071
522,3.276897222,11.96138333,3133.583998
523,3.277221389,11.96332833,3128.316086
524,3.277469722,11.96481833,3091.870142
525,3.2777175,11.966305,3078.211097
526,3.277969722,11.96781833,3025.76062
527,3.278218056,11.96930833,2979.764548
528,3.278551667,11.97131,2953.712433
529,3.278881944,11.97329167,2952.118658
530,3.279131944,11.97479167,2954.275685
531,3.279383056,11.97629833,2916.361261
532,3.279630833,11.977785,2890.824449
533,3.279883056,11.97929833,2876.46131
534,3.280214722,11.98128833,2877.938526
535,3.280538333,11.98323,2930.119188
536,3.280787778,11.98472667,2903.070714
537,3.281036944,11.98622167,2892.376282
538,3.281283889,11.98770333,2875.726135
539,3.281535278,11.98921167,2888.702099
540,3.281865278,11.99119167,2891.383828
541,3.282188611,11.99313167,2916.049277
542,3.282441389,11.99464833,2912.431958
543,3.282688056,11.99612833,2916.03783
