Meas,Time,Temperature,Vmax
1,0.500644722,9.603868333,10.67612972
2,0.500895,9.60537,12.04275661
3,0.501143056,9.606858333,11.31475317
4,0.501388333,9.60833,10.15442239
5,0.501633056,9.609798333,12.11191475
6,0.502013889,9.612083333,14.23156952
7,0.502375,9.61425,16.1054431
8,0.502622778,9.615736667,19.75282242
9,0.502875,9.61725,23.38314058
10,0.503125556,9.618753333,22.40443217
11,0.503374722,9.620248333,21.54579244
12,0.503753889,9.622523333,20.72787446
13,0.504116944,9.624701667,17.20764145
14,0.504364444,9.626186667,17.19493447
15,0.504610278,9.627661667,18.05195415
16,0.504857778,9.629146667,16.79413726
17,0.505105556,9.630633333,16.63570497
18,0.505481667,9.63289,16.62656912
19,0.505842778,9.635056667,14.37268846
20,0.506091389,9.636548333,12.39015062
21,0.5063425,9.638055,10.03300803
22,0.506596389,9.639578333,10.58693358
23,0.50685,9.6411,10.3173065
24,0.507235,9.64341,9.767112214
25,0.507600833,9.645605,11.01208931
26,0.5078475,9.647085,9.975119548
27,0.508095,9.64857,8.740485296
28,0.508345556,9.650073333,9.255983488
29,0.508600278,9.651601667,9.693871519
30,0.508968056,9.653808333,10.0160437
31,0.509319444,9.655916667,12.7180769
32,0.509568056,9.657408333,13.54207266
33,0.509822222,9.658933333,12.75596489
34,0.510079167,9.660475,12.49368494
35,0.5103275,9.661965,13.05083997
36,0.510691944,9.664151667,13.72634829
37,0.511044722,9.666268333,15.1322782
38,0.511298889,9.667793333,16.81939591
39,0.511551944,9.669311667,13.12800511
40,0.511798611,9.670791667,11.54623696
41,0.512048889,9.672293333,11.06313544
42,0.51241,9.67446,10.56654266
43,0.512760833,9.676565,10.43188718
44,0.513008333,9.67805,9.692325626
45,0.513258611,9.679551667,8.783089897
46,0.51351,9.68106,6.784151977
47,0.513763056,9.682578333,8.18153708
48,0.514128333,9.68477,9.705003646
49,0.5144775,9.686865,8.086060451
50,0.514724167,9.688345,4.960722704
51,0.514971667,9.68983,5.074454088
52,0.515221389,9.691328333,6.058202223
53,0.515471667,9.69283,7.015993716
54,0.5158575,9.695145,7.788539616
55,0.51623,9.69738,7.952034969
56,0.516483333,9.6989,8.733124775
57,0.516735556,9.700413333,10.55176531
58,0.516985833,9.701915,10.86895024
59,0.517237222,9.703423333,10.62289918
60,0.517604167,9.705625,10.23101585
61,0.517954444,9.707726667,9.757373979
62,0.518203611,9.709221667,13.16447359
63,0.518453056,9.710718333,14.30023737
64,0.518699167,9.712195,13.84401239
65,0.518946111,9.713676667,16.92936293
66,0.519329722,9.715978333,20.18210567
67,0.519693056,9.718158333,19.82304817
68,0.519940833,9.719645,20.87084693
69,0.520192778,9.721156667,21.58349605
70,0.520441667,9.72265,20.29645843
71,0.520688333,9.72413,21.47480525
72,0.521053611,9.726321667,22.34877477
73,0.5214075,9.728445,22.56914181
74,0.521656111,9.729936667,22.58198899
75,0.521902778,9.731416667,25.0051632
76,0.522151111,9.732906667,24.62761837
77,0.522404444,9.734426667,26.73912981
78,0.522794444,9.736766667,28.86281492
79,0.523162778,9.738976667,28.46776405
80,0.523413056,9.740478333,27.67643683
81,0.523663333,9.74198,25.00450397
82,0.523913889,9.743483333,25.43602193
83,0.524163333,9.74498,24.0471106
84,0.524536389,9.747218333,22.74140774
85,0.524893333,9.74936,21.45175059
86,0.525142778,9.750856667,21.49746433
87,0.525391389,9.752348333,20.81612097
88,0.525642778,9.753856667,22.56202188
89,0.525893611,9.755361667,22.83633994
90,0.526281389,9.757688333,23.48414159
91,0.526648889,9.759893333,23.91678387
92,0.526896111,9.761376667,28.66453298
93,0.5271475,9.762885,29.46308052
94,0.5274,9.7644,28.10004408
95,0.527648056,9.765888333,28.12550676
96,0.528017222,9.768103333,27.72699078
97,0.528376389,9.770258333,26.49460771
98,0.528623056,9.771738333,24.48015363
99,0.528872778,9.773236667,24.67683639
100,0.529124722,9.774748333,24.85117417
101,0.529376111,9.776256667,25.49738875
102,0.529765278,9.778591667,26.26978863
103,0.530133889,9.780803333,23.93839666
104,0.530383889,9.782303333,21.7588501
105,0.5306325,9.783795,21.07144404
106,0.530881944,9.785291667,22.18846001
107,0.5311325,9.786795,23.13771128
108,0.531501667,9.78901,24.35777675
109,0.531853056,9.791118333,25.2154793
110,0.532103611,9.792621667,22.53095014
111,0.5323575,9.794145,20.82997761
112,0.532609167,9.795655,21.10190163
113,0.532859444,9.797156667,21.2282732
114,0.533235556,9.799413333,21.10746113
115,0.533591944,9.806206667,18.18039352
116,0.53384,9.81216,16.29740572
117,0.534091389,9.818193333,17.92953255
118,0.534338889,9.824133333,16.749327
119,0.534588056,9.830113333,14.81485537
120,0.534976389,9.839433333,12.84236363
121,0.535345833,9.8483,11.98461452
122,0.535596944,9.854326667,12.55648859
123,0.535848889,9.860373333,13.55640693
124,0.536102222,9.866453333,8.949966566
125,0.536354444,9.872506667,9.73744665
126,0.5367125,9.8811,10.62535855
127,0.537059722,9.889433333,10.69454139
128,0.537310278,9.895446667,8.732374616
129,0.537560556,9.901453333,10.19897454
130,0.537807222,9.907373333,9.318032512
131,0.538055556,9.913333333,8.789360404
132,0.538414167,9.92194,7.97116328
133,0.538761944,9.930286667,8.478833598
134,0.5390125,9.9363,11.07196429
135,0.539264722,9.942353333,8.948453861
136,0.539510556,9.948253333,5.926547408
137,0.539760278,9.954246667,5.986977426
138,0.540150833,9.96362,6.390890584
139,0.540518611,9.972446667,5.266905947
140,0.540766111,9.978386667,6.901929657
141,0.541016111,9.984386667,4.496371112
142,0.541266944,9.990406667,5.739105343
143,0.541520833,9.9965,6.636769431
144,0.541902778,10.00566667,7.217853274
145,0.542265556,10.01437333,9.039080928
146,0.542511389,10.02027333,9.615000573
147,0.542764167,10.02634,9.13708466
148,0.543011944,10.03228667,11.28155711
149,0.543262222,10.03829333,13.20621719
150,0.543629444,10.04710667,15.21715343
151,0.543980556,10.05553333,16.46016374
152,0.544229167,10.0615,16.37869035
153,0.544480556,10.06753333,16.21204505
154,0.544730833,10.07354,15.07770231
155,0.544979167,10.0795,13.35119158
156,0.545356667,10.08856,11.31485883
157,0.545712222,10.09709333,11.32456307
158,0.545964167,10.10314,11.36827966
159,0.546211944,10.10908667,8.430962509
160,0.546459444,10.11502667,6.681320993
161,0.546712778,10.12110667,7.4599634
162,0.547083611,10.13000667,8.603008566
163,0.547443889,10.13865333,6.065544669
164,0.547693889,10.14465333,6.561182937
165,0.547944444,10.15066667,5.373822646
166,0.548193611,10.15664667,5.616110087
167,0.548445278,10.16268667,8.159582658
168,0.548813611,10.17152667,10.89141098
169,0.549168056,10.18003333,9.730525621
170,0.549419167,10.18606,7.378485739
171,0.549668611,10.19204667,5.495368068
172,0.549919167,10.19806,3.688711872
173,0.550171111,10.19897333,4.548306861
174,0.550573056,10.19656167,5.112433037
175,0.550948056,10.19431167,5.298718528
176,0.551195278,10.19282833,3.850981711
177,0.551442222,10.19134667,6.424860325
178,0.55169,10.18986,8.020914753
179,0.551938333,10.18837,7.042056691
180,0.552306667,10.18616,6.042555059
181,0.552665833,10.184005,4.54820907
182,0.552916111,10.18250333,6.018470107
183,0.553165556,10.18100667,5.621909128
184,0.553415833,10.179505,8.503006679
185,0.553668333,10.17799,11.87703644
186,0.554045556,10.17572667,15.16355743
187,0.554403611,10.17357833,15.7255789
188,0.554651111,10.17209333,16.46971808
189,0.554900556,10.17059667,19.00377203
190,0.555150278,10.16909833,19.00647269
191,0.555401111,10.16759333,16.12666728
192,0.555780556,10.16531667,13.47307804
193,0.556143611,10.16313833,11.00389989
194,0.556396667,10.16162,8.381705391
195,0.556650556,10.16009667,9.53006507
196,0.5569,10.1586,11.06146212
197,0.55715,10.1571,12.97784398
198,0.557523333,10.15486,14.86348036
199,0.557876944,10.15273833,14.38743493
200,0.558126111,10.15124333,15.40485355
201,0.558373889,10.14975667,12.17444345
202,0.558626111,10.14824333,14.93216567
203,0.558875278,10.14674833,15.01906557
204,0.559245556,10.14452667,14.73796441
205,0.5595975,10.142415,12.66113572
206,0.559846944,10.14091833,12.03237337
207,0.560096944,10.13941833,11.85633991
208,0.560344444,10.13793333,12.73357205
209,0.5605925,10.136445,12.98035435
210,0.560991944,10.13404833,13.53565198
211,0.561366389,10.13180167,13.75646001
212,0.561618333,10.13029,14.91176292
213,0.561869167,10.128785,12.71029896
214,0.562120833,10.127275,10.89396254
215,0.562376667,10.12574,12.72588492
216,0.562756111,10.12346333,14.49487382
217,0.563113611,10.12131833,15.71069602
218,0.563360278,10.11983833,15.93927093
219,0.563608611,10.11834833,15.74395003
220,0.563858333,10.11685,16.81753573
221,0.564105833,10.115365,18.06413532
222,0.564471111,10.11317333,19.38859939
223,0.564823056,10.11106167,17.57433026
224,0.56507,10.10958,15.26539368
225,0.565317222,10.10809667,14.77598185
226,0.565563889,10.10661667,15.19875987
227,0.565815278,10.10510833,15.48824268
228,0.566204444,10.10277333,15.89696537
229,0.566571111,10.10057333,14.69983087
230,0.566816111,10.10358667,12.55922624
231,0.5670625,10.1095,11.39320459
232,0.567314722,10.11555333,13.06182477
233,0.567565833,10.12158,15.14117466
234,0.567948889,10.13077333,17.16857883
235,0.568315278,10.13956667,15.31199779
236,0.568562778,10.14550667,17.53172016
237,0.5688125,10.1515,19.47471536
238,0.569065833,10.15758,20.30703521
239,0.569316667,10.1636,20.40654979
240,0.569701389,10.17283333,20.47719104
241,0.570065,10.18156,20.82564781
242,0.570315833,10.18758,23.25419809
243,0.570565833,10.19358,25.42523362
244,0.570815556,10.19957333,23.43260198
245,0.57106,10.20544,21.4122359
246,0.571429444,10.21430667,19.2807304
247,0.571789167,10.22294,18.19426511
248,0.572036111,10.22886667,14.938961
249,0.57229,10.23496,15.1739905
250,0.572542222,10.24101333,14.72183658
251,0.572795556,10.24709333,15.36634057
252,0.57316,10.25584,15.81149348
253,0.573510278,10.26424667,14.77140713
254,0.5737575,10.27018,18.28322979
255,0.574005833,10.27614,17.43821054
256,0.574253889,10.28209333,15.99588032
257,0.574502222,10.28805333,15.44598848
258,0.574871667,10.29692,14.71523269
259,0.5752225,10.30534,14.44289475
260,0.575470556,10.31129333,14.9127469
261,0.575721944,10.31732667,13.69977627
262,0.575976111,10.32342667,13.32770141
263,0.576228611,10.32948667,10.36284438
264,0.576592778,10.33822667,7.631256283
265,0.576945,10.34668,9.732590872
266,0.577197778,10.35274667,12.05463231
267,0.577449722,10.35879333,12.22467683
268,0.577696944,10.36472667,11.14086366
269,0.577949722,10.37079333,12.91040736
270,0.578322778,10.37974667,14.6886075
271,0.578673611,10.38816667,12.87360041
272,0.578918611,10.39404667,14.96113554
273,0.579167778,10.40002667,16.9726142
274,0.579413611,10.40592667,16.14490709
275,0.579662222,10.41189333,15.87065841
276,0.580035833,10.42086,15.36938064
277,0.5803925,10.42942,14.0364018
278,0.580645278,10.43548667,13.94646768
279,0.580898611,10.44156667,11.95981554
280,0.581148056,10.44755333,10.48287293
281,0.581399167,10.45358,9.857646457
282,0.581780278,10.46272667,9.232849501
283,0.582142778,10.47142667,6.67688342
284,0.582393056,10.47743333,8.364668148
285,0.582645833,10.4835,6.242455498
286,0.5828975,10.48954,6.181212703
287,0.583148056,10.49555333,9.48766924
288,0.583531944,10.49404167,13.15105514
289,0.583891667,10.48325,13.19021378
290,0.584135,10.47595,12.41389908
291,0.584383611,10.46849167,9.477296554
292,0.584634167,10.460975,10.48317369
293,0.584886111,10.45341667,11.37560752
294,0.585253611,10.44239167,12.09845882
295,0.5856025,10.431925,11.27499351
296,0.58585,10.4245,9.240307074
297,0.586100556,10.41698333,9.967713931
298,0.586349722,10.40950833,8.300708017
299,0.586601111,10.40196667,7.164801193
300,0.586983056,10.39050833,5.900200588
301,0.587345833,10.379625,2.448496728
302,0.587594444,10.37216667,4.441367301
303,0.587844444,10.36466667,5.457572421
304,0.588095,10.35715,7.472982658
305,0.588350278,10.34949167,8.973690017
306,0.588714722,10.33855833,10.79661166
307,0.589060833,10.328175,13.03354236
308,0.589309444,10.32071667,15.55877924
309,0.589560556,10.31318333,18.04163551
310,0.589810278,10.30569167,17.76378244
311,0.590061389,10.29815833,17.37160932
312,0.590443333,10.2867,16.82072195
313,0.590805278,10.27584167,13.64535165
314,0.591057222,10.26828333,9.633101747
315,0.591306944,10.26079167,9.039413509
316,0.591556389,10.25330833,11.12745621
317,0.591806667,10.2458,12.13887719
318,0.592198056,10.23405833,13.63302896
319,0.592566667,10.223,12.89361881
320,0.592816389,10.21550833,15.39811975
321,0.593068889,10.20793333,12.11499079
322,0.593318889,10.20043333,13.0041311
323,0.593568333,10.19295,12.46107581
324,0.593959444,10.18121667,11.39042574
325,0.594327778,10.17016667,9.636454697
326,0.594578056,10.16265833,8.1848722
327,0.594824722,10.15525833,8.08024738
328,0.5950725,10.147825,9.649610659
329,0.595321944,10.14034167,9.473178357
330,0.595703611,10.12889167,9.189460345
331,0.596062778,10.11811667,8.33528223
332,0.5963125,10.110625,7.689333888
333,0.596563611,10.10309167,4.638873661
334,0.596812222,10.09563333,1.05055876
335,0.597058889,10.08823333,3.965712355
336,0.597424444,10.07726667,6.837822443
337,0.597777222,10.06668333,7.717408473
338,0.598024167,10.059275,10.11560243
339,0.598274167,10.051775,9.330080113
340,0.598522778,10.04431667,9.557158054
341,0.598775833,10.036725,8.921874803
342,0.599156944,10.02529167,8.401689427
343,0.599521389,10.01435833,5.78081821
344,0.599769722,10.00690833,1.835047617
345,0.600017778,10.00053333,0.234485785
346,0.60027,10.0081,-0.648272933
347,0.600519167,10.015575,-1.657309378
348,0.600883889,10.02651667,-2.566299282
349,0.60124,10.0372,-5.841460648
350,0.601488611,10.04465833,-5.83775095
351,0.601743611,10.05230833,-6.084044445
352,0.601996944,10.05990833,-4.625410882
353,0.602247778,10.06743333,-4.804341179
354,0.602630833,10.078925,-4.865286916
355,0.602995278,10.08985833,-7.075267475
356,0.603245,10.09735,-9.252676601
357,0.603498333,10.10495,-9.415946192
358,0.603745833,10.112375,-9.255036457
359,0.603997778,10.11993333,-7.180486928
360,0.604368611,10.13105833,-5.050828501
361,0.604724167,10.141725,-2.636265964
362,0.604974444,10.14923333,0.554809884
363,0.605230833,10.156925,2.691164695
364,0.605483611,10.16450833,2.152864746
365,0.605734722,10.17204167,-0.376453455
366,0.606112222,10.18336667,-3.27264289
367,0.606477778,10.19433333,-4.964738454
368,0.606728056,10.20184167,-6.51487682
369,0.606979444,10.20938333,-4.19849936
370,0.607231389,10.21694167,-3.693674459
371,0.607480278,10.22440833,-2.645869241
372,0.607851944,10.23555833,-1.418891455
373,0.608210278,10.24630833,-5.095137521
374,0.608461667,10.25385,-2.087666388
375,0.608712778,10.26138333,-0.182382418
376,0.608960556,10.26881667,0.924723329
377,0.609211111,10.27633333,1.453546587
378,0.609582778,10.28748333,1.885536381
379,0.609939167,10.298175,2.832589024
380,0.610184167,10.305525,1.738108263
381,0.610434444,10.31303333,1.960384797
382,0.610688333,10.32065,-0.988796588
383,0.6109425,10.328275,-5.692959544
384,0.611316667,10.3395,-10.35735029
385,0.611676944,10.35030833,-8.971449972
386,0.611924444,10.35773333,-6.989392274
387,0.612174167,10.365225,-6.642069369
388,0.612425556,10.37276667,-5.22858801
389,0.612673889,10.38021667,-3.406499799
390,0.613054167,10.391625,-1.50230768
391,0.613414722,10.40244167,-4.455707221
392,0.613660833,10.409825,-3.977811032
393,0.613912222,10.41736667,-3.806519146
394,0.614161389,10.42484167,-4.590499297
395,0.614407222,10.43221667,-3.234560728
396,0.614766667,10.443,-1.802261718
397,0.615118889,10.45356667,-2.109347028
398,0.615367778,10.46103333,-2.442482034
399,0.615617222,10.46851667,-4.212430658
400,0.615867222,10.47601667,-5.148589965
401,0.616115,10.48345,-6.135609028
402,0.616473333,10.4942,-7.307855775
403,0.6168225,10.502805,-5.960400786
404,0.617073611,10.507325,-5.865510729
405,0.617326667,10.51188,-6.013126441
406,0.617574444,10.51634,-5.492612469
407,0.617824722,10.520845,-6.467174987
408,0.618200833,10.527615,-7.503851235
409,0.618561944,10.534115,-6.424660291
410,0.6188125,10.538625,-7.243653204
411,0.619061667,10.54311,-8.870912685
412,0.619311389,10.547605,-6.249814124
413,0.619561667,10.55211,-6.388520111
414,0.619915556,10.55848,-6.130751844
415,0.62026,10.56468,-8.916008197
416,0.620515,10.56927,-10.57971846
417,0.620767222,10.57381,-10.69895993
418,0.621016389,10.578295,-12.07680328
419,0.621269167,10.582845,-10.04487517
420,0.621636111,10.58945,-8.275861216
421,0.621985833,10.595745,-10.18015592
422,0.622231667,10.60017,-7.556687473
423,0.622481944,10.604675,-4.79027568
424,0.622733333,10.6092,-2.94964617
425,0.622984444,10.61372,-4.436103641
426,0.623362778,10.62053,-5.371316756
427,0.62372,10.62696,-5.503230635
428,0.623970556,10.63147,-2.924657628
429,0.624220833,10.635975,-3.434590234
430,0.624468333,10.64043,-3.242845416
431,0.624716111,10.64489,0.037629116
432,0.625086111,10.65155,2.443488653
433,0.625441667,10.65795,1.454620423
434,0.625693611,10.662485,0.145227419
435,0.625943889,10.66699,0.671783766
436,0.626191667,10.67145,2.33379709
437,0.626439444,10.67591,3.440511286
438,0.626814722,10.682665,5.342969536
439,0.627168889,10.68904,4.942894518
440,0.627415278,10.693475,6.822021017
441,0.627663889,10.69795,8.579831297
442,0.627910278,10.702385,10.98752041
443,0.628156389,10.706815,12.17932286
444,0.628534722,10.713625,13.23879354
445,0.628895278,10.720115,14.50281583
446,0.629145,10.72461,13.45325289
447,0.629392778,10.72907,14.18957878
448,0.629641389,10.733545,16.52445952
449,0.629894167,10.738095,17.34911922
450,0.630268056,10.744825,17.78822922
451,0.630621389,10.751185,18.551644
452,0.630871944,10.755695,17.54341743
453,0.631121389,10.760185,17.58585512
454,0.6313725,10.764705,16.21228943
455,0.631625833,10.769265,18.08350671
456,0.632011389,10.776205,19.91131392
457,0.632379722,10.782835,17.44418692
458,0.632626667,10.78728,18.52235357
459,0.632874167,10.791735,19.50761243
460,0.633120833,10.796175,20.37102846
461,0.633369444,10.79956667,20.52375224
462,0.633763056,10.79484333,20.72242764
463,0.634132222,10.79041333,17.61753701
464,0.63438,10.78744,14.6517296
465,0.634631111,10.78442667,13.29788373
466,0.634883333,10.7814,12.2200491
467,0.6351325,10.77841,12.81281104
468,0.635508333,10.7739,13.54180984
469,0.635868333,10.76958,14.92674025
470,0.636120556,10.76655333,18.152574
471,0.636371667,10.76354,22.17347451
472,0.636620278,10.76055667,22.10366842
473,0.6368725,10.75753,23.14974048
474,0.637247222,10.75303333,24.14398834
475,0.637608333,10.7487,22.64233544
476,0.637859444,10.74568667,21.56528051
477,0.638108889,10.74269333,21.43575136
478,0.638358333,10.7397,20.33390458
479,0.638611389,10.73666333,21.43789729
480,0.638988611,10.73213667,22.46091007
481,0.639348056,10.72782333,24.37122276
482,0.639594722,10.72486333,24.51430824
483,0.639844167,10.72187,26.0906253
484,0.640095556,10.71885333,24.55387156
485,0.640348611,10.71581667,20.11095871
486,0.640726944,10.71127667,15.66927101
487,0.641083889,10.70699333,13.32937953
488,0.641334444,10.70398667,11.79675394
489,0.641585556,10.70097333,12.01953137
490,0.641834167,10.69799,13.16332644
491,0.642086667,10.69496,12.9486596
492,0.642472778,10.69032667,12.77298942
493,0.642841111,10.68590667,9.869279403
494,0.643090556,10.68291333,8.468486201
495,0.6433375,10.67995,9.085854841
496,0.643587778,10.67694667,7.873437654
497,0.643836389,10.67396333,5.875027708
498,0.644201667,10.66958,4.088853849
499,0.644552778,10.66536667,2.862653458
500,0.644798056,10.66242333,1.945336219
501,0.645046944,10.65943667,0.331726682
502,0.645296389,10.65644333,-1.682762152
503,0.645547778,10.65342667,-6.168335114
504,0.645923889,10.64891333,-10.79300534
505,0.646283056,10.64460333,-8.161959318
506,0.646530556,10.64163333,-5.794510474
507,0.646778333,10.63866,-5.435197332
508,0.647026944,10.63567667,-3.369555353
