Meas,Time,Temperature,Vmax.og,Vmax.inst
1,0,11.50155167,4007.087115,4007.087115
2,0.000251389,11.50306,4055.018163,4055.018164
3,0.000506112,11.50458833,4091.211077,4091.21108
4,0.000758334,11.50610167,4100.070263,4100.070267
5,0.001009723,11.50761,4172.988719,4172.988725
6,0.001343889,11.509615,4234.409478,4234.409486
7,0.001671112,11.51157833,4277.384292,4277.384302
8,0.001920834,11.51307667,4310.374951,4310.374962
9,0.002173056,11.51459,4287.144581,4287.144594
10,0.002424445,11.51609833,4277.768322,4277.768336
11,0.002673612,11.51759333,4290.215793,4290.215808
12,0.003006389,11.51959,4286.666028,4286.666045
13,0.003335,11.52156167,4328.525025,4328.525045
14,0.003583889,11.523055,4393.400087,4393.400108
15,0.003831389,11.52454,4362.753866,4362.753889
16,0.004077778,11.52601833,4344.324724,4344.324748
17,0.004326389,11.52751,4302.880693,4302.880718
18,0.004654445,11.52947833,4280.673006,4280.673033
19,0.004980556,11.531435,4387.330061,4387.330091
20,0.005229445,11.53292833,4418.509148,4418.509179
21,0.005478056,11.53442,4391.198648,4391.198681
22,0.00573,11.53593167,4410.723052,4410.723086
23,0.005980556,11.537435,4435.395491,4435.395527
24,0.006309167,11.53940667,4454.660183,4454.660221
25,0.006632778,11.54134833,4485.365925,4485.365966
26,0.006883334,11.54285167,4528.488173,4528.488215
27,0.007133612,11.54435333,4537.356807,4537.356851
28,0.007385556,11.545865,4522.080552,4522.080598
29,0.007635,11.54736167,4572.553609,4572.553657
30,0.007959723,11.54931,4589.746374,4589.746424
31,0.008283056,11.55125,4627.685571,4627.685623
32,0.008536945,11.55277333,4598.804367,4598.804421
33,0.008784723,11.55426,4577.974525,4577.97458
34,0.009032223,11.555745,4505.04022,4505.040276
35,0.009285278,11.55726333,4488.30713,4488.307187
36,0.009615278,11.55924333,4473.440853,4473.440911
37,0.009943334,11.56121167,4488.073796,4488.073857
38,0.010191112,11.56269833,4459.243605,4459.243667
39,0.010438612,11.56418333,4442.464957,4442.465021
40,0.010688334,11.56568167,4405.098209,4405.098274
41,0.010936389,11.56717,4434.14317,4434.143237
42,0.011267223,11.569155,4476.18781,4476.187879
43,0.011591945,11.57110333,4541.724627,4541.724699
44,0.011842778,11.57260833,4528.67674,4528.676814
45,0.012091667,11.57410167,4515.020616,4515.020691
46,0.012345,11.57562167,4559.54952,4559.549598
47,0.012596945,11.57713333,4583.007609,4583.007689
48,0.012927778,11.57911833,4578.983914,4578.983995
49,0.013253612,11.58107333,4600.195099,4600.195183
50,0.013505278,11.58258333,4567.08109,4567.081175
51,0.013752778,11.58406833,4505.529233,4505.529319
52,0.013999723,11.58555,4447.222373,4447.222459
53,0.014251389,11.58706,4445.820219,4445.820307
54,0.014576945,11.58901333,4460.576885,4460.576975
55,0.014893334,11.59091167,4464.050761,4464.050853
56,0.015141667,11.59240167,4455.493,4455.493094
57,0.015387778,11.59387833,4404.14768,4404.147774
58,0.015637778,11.59537833,4395.491734,4395.491829
59,0.015889167,11.59688667,4336.543022,4336.543118
60,0.0162225,11.59888667,4294.65246,4294.652556
61,0.016549723,11.6,4333.736144,4333.736243
62,0.016797223,11.6,4357.46231,4357.462411
63,0.017044167,11.6,4362.727812,4362.727916
64,0.0172925,11.6,4395.508591,4395.508697
65,0.017546667,11.6,4370.058822,4370.058929
66,0.017881112,11.6,4323.63965,4323.639757
67,0.018208334,11.6,4374.137399,4374.137509
68,0.018455834,11.6,4366.545009,4366.545121
69,0.018704445,11.6,4382.639857,4382.639971
70,0.018953889,11.6,4359.262286,4359.262401
71,0.019203056,11.6,4333.202156,4333.202272
72,0.019532223,11.6,4288.560199,4288.560316
73,0.019859445,11.6,4305.078246,4305.078365
74,0.020109445,11.6,4295.992528,4295.992648
75,0.020360278,11.6,4279.34495,4279.345072
76,0.020613889,11.6,4252.59142,4252.591543
77,0.020860834,11.6,4238.788581,4238.788705
78,0.021186945,11.6,4220.762227,4220.762352
79,0.021507778,11.6,4246.068308,4246.068435
80,0.021756112,11.6,4244.276039,4244.276168
81,0.022009167,11.6,4205.250543,4205.250673
82,0.022258612,11.6,4185.826861,4185.826992
83,0.022508334,11.6,4186.586543,4186.586675
84,0.022844445,11.6,4197.324253,4197.324387
85,0.023174445,11.6,4213.491277,4213.491413
86,0.023422223,11.6,4210.873376,4210.873514
87,0.023670556,11.6,4173.776936,4173.777075
88,0.023920834,11.6,4184.98225,4184.982391
89,0.024172223,11.6,4171.285913,4171.286055
90,0.024501112,11.6,4180.986116,4180.98626
91,0.0248275,11.6,4243.824684,4243.824831
92,0.025075,11.6,4285.432638,4285.432789
93,0.025324167,11.6,4304.854366,4304.85452
94,0.025570834,11.6,4316.037924,4316.03808
95,0.025821389,11.6,4323.567241,4323.567398
96,0.026157778,11.6,4308.621903,4308.622061
97,0.026487778,11.6,4346.409593,4346.409754
98,0.026738056,11.6,4358.872628,4358.872792
99,0.026985556,11.6,4352.181112,4352.181278
100,0.027233056,11.6,4346.661489,4346.661656
101,0.027485556,11.6,4309.515927,4309.516094
102,0.02782,11.6,4282.554231,4282.554399
103,0.028148889,11.6,4367.328684,4367.328857
104,0.028397223,11.6,4388.388962,4388.389138
105,0.028649723,11.6,4402.576128,4402.576306
106,0.028903334,11.6,4384.551475,4384.551654
107,0.029154167,11.6,4340.723442,4340.723621
108,0.02948,11.6,4298.490535,4298.490714
109,0.029802778,11.6,4359.192261,4359.192444
110,0.030053334,11.6,4358.466674,4358.466859
111,0.030301667,11.6,4335.079594,4335.07978
112,0.030548056,11.6,4310.434804,4310.434991
113,0.030795834,11.6,4300.335568,4300.335756
114,0.031128612,11.6,4270.003037,4270.003225
115,0.031451945,11.6,4268.717578,4268.717767
116,0.031700556,11.6,4274.7917,4274.791892
117,0.031949167,11.6,4285.291311,4285.291505
118,0.0321975,11.6,4245.923543,4245.923737
119,0.032448056,11.6,4250.120058,4250.120254
120,0.032779723,11.6,4251.413704,4251.413901
121,0.033106112,11.6,4333.245129,4333.245332
122,0.0333525,11.6,4317.945967,4317.946171
123,0.033601112,11.6,4295.289965,4295.29017
124,0.033850278,11.6,4266.193398,4266.193603
125,0.034100278,11.6,4299.654467,4299.654675
126,0.034429167,11.6,4313.956095,4313.956306
127,0.034752223,11.6,4326.649683,4326.649896
128,0.035,11.6,4310.079876,4310.08009
129,0.035251112,11.6,4276.191694,4276.191908
130,0.035499723,11.6,4255.591938,4255.592153
131,0.035749445,11.6,4217.396693,4217.396908
132,0.036076389,11.6,4197.799615,4197.79983
133,0.036399167,11.6,4247.718388,4247.718607
134,0.036648334,11.6,4280.658315,4280.658538
135,0.036896667,11.6,4231.483797,4231.484019
136,0.037143612,11.6,4180.801382,4180.801603
137,0.037391112,11.6,4151.823826,4151.824047
138,0.037718612,11.6,4121.778655,4121.778876
139,0.038042778,11.6,4191.26932,4191.269546
140,0.038287778,11.6,4198.574918,4198.575147
141,0.038532778,11.6,4149.088879,4149.089107
142,0.038781945,11.6,4153.613203,4153.613433
143,0.039030556,11.6,4114.600266,4114.600495
144,0.039353889,11.6,4087.312525,4087.312754
145,0.039674445,11.6,4162.629809,4162.630044
146,0.0399225,11.6,4201.414002,4201.414241
147,0.04017,11.6,4205.009142,4205.009383
148,0.040421112,11.6,4207.408873,4207.409116
149,0.040674445,11.6,4219.623058,4219.623303
150,0.041000556,11.6,4192.493328,4192.493573
151,0.041323334,11.6,4220.891454,4220.891702
152,0.04157,11.6,4215.679343,4215.679593
153,0.041819167,11.6,4193.911413,4193.911664
154,0.042068612,11.6,4145.664708,4145.664957
155,0.042321667,11.6,4139.3804,4139.380651
156,0.042653612,11.6,4160.618111,4160.618364
157,0.04298,11.6,4228.042115,4228.042374
158,0.043231112,11.6,4218.828669,4218.82893
159,0.043480556,11.6,4250.910946,4250.911211
160,0.043730556,11.6,4249.524078,4249.524344
161,0.043979445,11.6,4243.410636,4243.410903
162,0.044303056,11.6,4232.13119,4232.131458
163,0.044625278,11.6,4346.976259,4346.976536
164,0.044876945,11.6,4334.394581,4334.394859
165,0.045128056,11.6,4315.440963,4315.441242
166,0.0453775,11.6,4302.983424,4302.983704
167,0.045625834,11.6,4300.69493,4300.695211
168,0.0459575,11.6,4267.087301,4267.087582
169,0.046283889,11.6,4301.998138,4301.998423
170,0.0465325,11.6,4292.167163,4292.167449
171,0.046779167,11.6,4248.687612,4248.687897
172,0.047027778,11.6,4197.598464,4197.598747
173,0.047278056,11.6,4199.357472,4199.357757
174,0.047603334,11.6,4217.103075,4217.103363
175,0.047925834,11.6,4225.093615,4225.093905
176,0.048175556,11.6,4187.38054,4187.380829
177,0.048429167,11.6,4186.564579,4186.56487
178,0.04868,11.6,4148.251297,4148.251587
179,0.048931112,11.6,4109.783987,4109.784276
180,0.049257778,11.6,4069.213778,4069.214066
181,0.049583334,11.6,4076.157009,4076.157299
182,0.049835278,11.60056333,4100.112187,4100.11248
183,0.050082223,11.602045,4116.691719,4116.692015
184,0.050329167,11.60352667,4115.763228,4115.763526
185,0.050577778,11.60501833,4073.930019,4073.930315
186,0.050903612,11.60697333,4020.359652,4020.359946
187,0.051224445,11.60889833,4052.015551,4052.015849
188,0.051473056,11.61039,4047.537847,4047.538146
189,0.051723334,11.61189167,4046.075616,4046.075917
190,0.051971945,11.61338333,4006.435913,4006.436213
191,0.052223056,11.61489,3951.735762,3951.736059
192,0.052555556,11.616885,3894.708375,3894.708669
193,0.0528875,11.61887667,3943.463654,3943.463954
194,0.053141389,11.6204,3926.859364,3926.859664
195,0.053393612,11.62191333,3909.429376,3909.429676
196,0.053643889,11.623415,3918.163172,3918.163475
197,0.0538925,11.62490667,3899.616649,3899.616952
198,0.054219723,11.62687,3849.286974,3849.287275
199,0.054545,11.62882167,3853.164335,3853.164637
200,0.054794445,11.63031833,3822.715384,3822.715685
201,0.055045,11.63182167,3770.235749,3770.236048
202,0.055294167,11.63331667,3712.072669,3712.072965
203,0.055544723,11.63482,3718.712909,3718.713207
204,0.055878056,11.63682,3755.23378,3755.234083
205,0.056198612,11.63874333,3816.60654,3816.606849
206,0.056443889,11.640215,3822.709278,3822.709589
207,0.056692223,11.641705,3852.772221,3852.772536
208,0.056944445,11.64321833,3849.773333,3849.773649
209,0.057195,11.64472167,3816.890886,3816.891201
210,0.057522778,11.64668833,3767.981164,3767.981477
211,0.057843612,11.64861333,3782.518064,3782.51838
212,0.058095834,11.65012667,3810.239103,3810.239423
213,0.058347223,11.651635,3828.406046,3828.406369
214,0.058596667,11.65313167,3813.341573,3813.341896
215,0.058847778,11.65463833,3808.399325,3808.399649
216,0.059181112,11.65663833,3834.348664,3834.348992
217,0.059506389,11.65859,3876.94942,3876.949753
218,0.059754167,11.66007667,3904.082903,3904.08324
219,0.060001945,11.66156333,3933.299519,3933.299861
220,0.060250278,11.66305333,3955.690594,3955.690939
221,0.060499167,11.66454667,3934.405533,3934.405878
222,0.060824167,11.66649667,3902.291532,3902.291876
223,0.061146112,11.66842833,4001.021874,4001.022228
224,0.061391389,11.6699,4028.466212,4028.46657
225,0.061640834,11.67139667,4077.863445,4077.863809
226,0.061890556,11.672895,4109.04945,4109.049819
227,0.062137223,11.674375,4108.225009,4108.22538
228,0.062459723,11.67631,4091.369446,4091.369817
229,0.062780556,11.678235,4157.727302,4157.727681
230,0.063031945,11.67974333,4144.567765,4144.568144
231,0.063280556,11.681235,4171.277953,4171.278336
232,0.063529723,11.68273,4154.545756,4154.54614
233,0.063773889,11.684195,4176.175869,4176.176257
234,0.064103612,11.68617333,4202.528754,4202.529146
235,0.064426112,11.68810833,4241.464276,4241.464673
236,0.064671112,11.68957833,4252.258787,4252.259187
237,0.064920278,11.69107333,4268.852037,4268.85244
238,0.065171945,11.69258333,4251.533989,4251.534392
239,0.065422223,11.694085,4228.33672,4228.337123
240,0.065743056,11.69601,4207.863978,4207.864381
241,0.066063612,11.69793333,4306.845985,4306.846399
242,0.066317778,11.69945833,4310.291858,4310.292275
243,0.066566112,11.70094833,4312.933219,4312.933638
244,0.066811112,11.70241833,4278.203785,4278.204202
245,0.067059723,11.70391,4288.59995,4288.60037
246,0.067386945,11.70587333,4269.922493,4269.922913
247,0.06771,11.70781167,4305.771311,4305.771736
248,0.067957778,11.70929833,4284.95621,4284.956635
249,0.068206112,11.71078833,4269.567644,4269.56807
250,0.068455834,11.71228667,4285.032592,4285.033021
251,0.068709167,11.71380667,4241.729763,4241.73019
252,0.069040556,11.715795,4213.682718,4213.683144
253,0.069365278,11.71774333,4248.137167,4248.137598
254,0.069615278,11.71924333,4288.773776,4288.774213
255,0.069863889,11.720735,4299.782279,4299.782719
256,0.070113612,11.72223333,4273.901767,4273.902206
257,0.070361112,11.72371833,4279.716647,4279.717089
258,0.070687223,11.725675,4292.993135,4292.99358
259,0.071006389,11.72759,4401.946373,4401.946831
260,0.071255834,11.72908667,4452.877574,4452.878039
261,0.071502223,11.730565,4416.117602,4416.118065
262,0.071749167,11.73204667,4465.647072,4465.647542
263,0.071996389,11.73353,4426.437255,4426.437724
264,0.072327223,11.735515,4378.869206,4378.869672
265,0.072649723,11.73745,4452.866322,4452.866798
266,0.072897223,11.738935,4464.055862,4464.056341
267,0.073147223,11.740435,4494.659877,4494.660361
268,0.073394723,11.74192,4510.389493,4510.38998
269,0.073642223,11.743405,4516.278637,4516.279127
270,0.073965,11.74534167,4500.859369,4500.859859
271,0.074285556,11.747265,4542.124636,4542.125133
272,0.074535,11.74876167,4532.403002,4532.4035
273,0.074785278,11.75026333,4513.979406,4513.979904
274,0.075036389,11.75177,4513.906141,4513.906641
275,0.075286112,11.75326833,4515.482534,4515.483036
276,0.075617778,11.75525833,4532.743187,4532.743693
277,0.075945,11.75722167,4608.068346,4608.068862
278,0.076193612,11.75871333,4604.150044,4604.150562
279,0.076444723,11.76022,4632.118413,4632.118936
280,0.076700278,11.76175333,4639.543385,4639.543912
281,0.076951945,11.76326333,4647.053602,4647.054131
282,0.077280834,11.76523667,4637.287173,4637.287703
283,0.077605278,11.76718333,4721.275994,4721.276536
284,0.077853612,11.76867333,4728.785296,4728.78584
285,0.0781025,11.77016667,4691.549474,4691.550016
286,0.078348612,11.77164333,4676.041411,4676.041953
287,0.078598334,11.77314167,4630.863933,4630.864473
288,0.078928334,11.77512167,4578.462505,4578.463041
289,0.07925,11.77705167,4607.785863,4607.786404
290,0.079495834,11.77852667,4598.159599,4598.160141
291,0.079741667,11.78000167,4577.82926,4577.829802
292,0.079991945,11.78150333,4559.693654,4559.694195
293,0.080242223,11.783005,4539.132639,4539.13318
294,0.080573612,11.78499333,4542.011034,4542.011577
295,0.080900834,11.78695667,4617.791361,4617.791916
296,0.081148889,11.788445,4654.878285,4654.878846
297,0.081398334,11.78994167,4688.204627,4688.205194
298,0.0816475,11.79143667,4669.455807,4669.456374
299,0.081892223,11.792905,4690.758141,4690.758713
300,0.082223056,11.79489,4704.491597,4704.492172
301,0.08255,11.79685167,4715.911569,4715.912148
302,0.082797778,11.79833833,4727.51097,4727.511552
303,0.083045834,11.79982667,4734.793154,4734.79374
304,0.083293889,11.8,4730.194099,4730.194687
305,0.0835425,11.8,4737.62574,4737.626331
306,0.083871389,11.8,4710.718678,4710.719267
307,0.084198612,11.8,4725.497341,4725.497934
308,0.084449723,11.8,4737.578654,4737.579251
309,0.0846975,11.8,4706.024932,4706.025528
310,0.084945834,11.8,4692.815746,4692.816342
311,0.085194723,11.8,4630.009302,4630.009892
312,0.085518056,11.8,4588.119982,4588.120569
313,0.085834445,11.8,4641.725253,4641.725849
314,0.086083612,11.8,4617.890267,4617.890862
315,0.086332223,11.8,4607.581622,4607.582218
316,0.08658,11.8,4585.221095,4585.221691
317,0.086831112,11.8,4548.812707,4548.8133
318,0.087158334,11.8,4506.27506,4506.275649
319,0.087480834,11.8,4504.865591,4504.866182
320,0.087730278,11.8,4444.38832,4444.388905
321,0.087981667,11.8,4371.62446,4371.625038
322,0.088233889,11.8,4267.603428,4267.603994
323,0.088481389,11.8,4225.030855,4225.031418
324,0.088806667,11.8,4222.243072,4222.243636
325,0.089133056,11.8,4282.1757,4282.176274
326,0.089383334,11.8,4217.638477,4217.639044
327,0.089627223,11.8,4202.285586,4202.286153
328,0.089875,11.8,4147.275185,4147.275747
329,0.090125278,11.8,4071.062342,4071.062895
330,0.090461389,11.8,3975.63963,3975.640172
331,0.090785834,11.8,3930.008431,3930.008969
332,0.091039723,11.8,3899.71298,3899.713515
333,0.091292223,11.8,3855.245925,3855.246456
334,0.091541667,11.8,3772.440178,3772.4407
335,0.091797223,11.8,3721.481963,3721.482479
336,0.092124445,11.8,3728.738608,3728.739127
337,0.092446112,11.8,3753.70196,3753.702484
338,0.092694445,11.8,3687.968976,3687.969493
339,0.092942223,11.8,3659.291704,3659.292219
340,0.093192778,11.8,3620.31914,3620.319651
341,0.093440278,11.8,3571.477222,3571.477728
342,0.093772778,11.8,3533.696709,3533.697211
343,0.094099167,11.8,3580.948941,3580.949451
344,0.094345556,11.8,3567.950865,3567.951375
345,0.094591389,11.8,3564.496737,3564.497248
346,0.09484,11.8,3542.093274,3542.093784
347,0.095089723,11.8,3537.424115,3537.424626
348,0.095415834,11.8,3512.496823,3512.497332
349,0.095738056,11.8,3528.165382,3528.165895
350,0.095988056,11.8,3444.422605,3444.423107
351,0.096237223,11.8,3381.152674,3381.153168
352,0.096485,11.8,3304.834743,3304.835228
353,0.096735278,11.8,3283.720473,3283.720957
354,0.097070834,11.8,3314.393199,3314.393688
355,0.097397778,11.8,3347.276804,3347.2773
356,0.097648056,11.8,3335.603026,3335.603521
357,0.0978975,11.8,3324.555579,3324.556075
358,0.098146112,11.8,3282.534373,3282.534864
359,0.098395834,11.8,3208.518351,3208.518833
360,0.098731112,11.8,3154.841731,3154.842206
361,0.099058889,11.8,3200.757135,3200.757618
362,0.099307223,11.8,3204.409879,3204.410364
363,0.099556945,11.8,3226.753187,3226.753677
364,0.099806945,11.80039333,3199.687575,3199.688063
365,0.100055834,11.80188667,3165.222723,3165.223207
366,0.100384723,11.80386,3104.249788,3104.250264
367,0.100714723,11.80584,3103.682758,3103.683235
368,0.100964167,11.80733667,3035.024217,3035.024685
369,0.101213612,11.80883333,2976.22436,2976.22482
370,0.101460278,11.81031333,2958.51935,2958.519809
371,0.101706945,11.81179333,2890.349571,2890.350021
372,0.102035834,11.81376667,2818.722306,2818.722746
373,0.102361112,11.81571833,2803.916954,2803.917394
374,0.102608056,11.8172,2778.79101,2778.791447
375,0.102856389,11.81869,2763.338179,2763.338615
376,0.103105834,11.82018667,2729.657077,2729.657509
377,0.103357778,11.82169833,2724.969904,2724.970336
378,0.103682223,11.823645,2762.225371,2762.22581
379,0.104001389,11.82556,2850.8129,2850.813354
380,0.104251667,11.82706167,2899.019276,2899.01974
381,0.104501112,11.82855833,2832.868256,2832.868711
382,0.104753334,11.83007167,2845.97287,2845.973328
383,0.105002778,11.83156833,2823.165611,2823.166067
384,0.105334445,11.83355833,2790.349874,2790.350326
385,0.105659723,11.83551,2806.141129,2806.141585
386,0.105906667,11.83699167,2826.342802,2826.343262
387,0.106158056,11.8385,2817.510529,2817.510989
388,0.106408056,11.84,2808.928579,2808.929039
389,0.106661112,11.84151833,2817.301211,2817.301674
390,0.106992778,11.84350833,2814.422209,2814.422673
391,0.107318889,11.845465,2852.525409,2852.525881
392,0.1075675,11.84695667,2837.965355,2837.965826
393,0.107815,11.84844167,2812.161919,2812.162387
394,0.10806,11.84991167,2798.029112,2798.029578
395,0.108305,11.85138167,2784.665235,2784.6657
396,0.108632223,11.853345,2787.548818,2787.549285
397,0.108956389,11.85529,2848.446413,2848.446892
398,0.109203889,11.856775,2841.089911,2841.09039
399,0.1094525,11.85826667,2849.961952,2849.962435
400,0.109700278,11.85975333,2804.706214,2804.70669
401,0.109947223,11.861235,2829.797755,2829.798237
402,0.110276112,11.86320833,2829.663064,2829.663547
403,0.110601389,11.86516,2842.239263,2842.239749
404,0.110849167,11.86664667,2848.337756,2848.338245
405,0.111098612,11.86814333,2821.015092,2821.015577
406,0.111353056,11.86967,2784.989132,2784.989613
407,0.111608056,11.8712,2758.680117,2758.680595
408,0.111941667,11.87320167,2751.987733,2751.988211
409,0.112266389,11.87515,2784.209126,2784.209611
410,0.112512223,11.876625,2790.433713,2790.4342
411,0.112762223,11.878125,2748.988783,2748.989264
