Meas,Time,Temperature,Vmax
1,0.666996389,9.509891667,17.88641432
2,0.667349444,9.520483333,21.82850022
3,0.667600556,9.528016667,21.61702324
4,0.667850833,9.535525,26.98293934
5,0.668105833,9.543175,30.63513776
6,0.668361944,9.550858333,27.79225953
7,0.668720278,9.561608333,25.82613268
8,0.669061667,9.57185,29.13235412
9,0.669310556,9.579316667,32.95116691
10,0.669556944,9.586708333,30.61798796
11,0.669811111,9.594333333,33.93833544
12,0.670063333,9.6019,34.49223454
13,0.670389444,9.611683333,34.30367457
14,0.670712778,9.621383333,33.16644037
15,0.670963333,9.6289,35.65548022
16,0.671216111,9.636483333,37.62677828
17,0.671463333,9.6439,39.52339199
18,0.671714167,9.651425,35.98327825
19,0.672068056,9.662041667,33.17193726
20,0.672416944,9.672508333,34.76608394
21,0.672666111,9.679983333,38.98454252
22,0.672921667,9.68765,40.01359704
23,0.673176389,9.695291667,44.72321457
24,0.673428333,9.70285,46.48320196
25,0.673779444,9.713383333,46.61297076
26,0.674123056,9.723691667,47.75009472
27,0.674374167,9.731225,44.77441708
28,0.674626111,9.738783333,40.652649
29,0.674879444,9.746383333,39.75634837
30,0.6751325,9.753975,42.50214545
31,0.675486944,9.764608333,46.69589532
32,0.675825,9.77475,48.84657951
33,0.676072778,9.782183333,52.99740515
34,0.676329722,9.789891667,49.62232124
35,0.676582778,9.797483333,46.08033927
36,0.676832778,9.804983333,41.7830986
37,0.677171944,9.815158333,37.80107594
38,0.677507222,9.825216667,35.42441804
39,0.677757778,9.832733333,36.02886157
40,0.678007222,9.840216667,35.35937401
41,0.678256944,9.847708333,34.41334536
42,0.678513333,9.8554,28.76436333
43,0.678869722,9.866091667,22.46436771
44,0.679210556,9.876316667,20.93488379
45,0.679458333,9.88375,17.22613811
46,0.679707778,9.891233333,13.21142791
47,0.679959722,9.898791667,9.207908135
48,0.680210556,9.906316667,6.321518349
49,0.680565556,9.916966667,3.917509017
50,0.680909167,9.927275,1.578850534
51,0.681158889,9.934766667,0.718290064
52,0.681410833,9.942325,0.334385817
53,0.681666111,9.949983333,-2.587438513
54,0.681917222,9.957516667,-0.176645156
55,0.682270556,9.968116667,1.707027796
56,0.682614444,9.978433333,2.794614639
57,0.682863056,9.985891667,1.605671328
58,0.683113056,9.993391667,3.735960483
59,0.683363889,10.00036667,3.95754666
60,0.683615833,10.00339,3.412095176
61,0.683960278,10.00752333,2.541988651
62,0.684295833,10.01155,-1.233532654
63,0.684544167,10.01453,-3.166811107
64,0.684796667,10.01756,-4.162918228
65,0.685051389,10.02061667,-6.30005515
66,0.685301944,10.02362333,-8.138863267
67,0.6856525,10.02783,-9.137114832
68,0.685990556,10.03188667,-7.695706413
69,0.686241944,10.03490333,-3.034006349
70,0.686489722,10.03787667,-1.436068356
71,0.686737222,10.04084667,-5.549005141
72,0.686986667,10.04384,-6.483046656
73,0.687356944,10.04828333,-7.303798079
74,0.687708611,10.05250333,-7.062322574
75,0.687957778,10.05549333,-5.575526264
76,0.688207222,10.05848667,-5.766560418
77,0.688455278,10.06146333,-5.390801174
78,0.688703611,10.06444333,-5.245956916
79,0.689061389,10.06873667,-5.538860689
80,0.689408889,10.07290667,-5.71035093
81,0.6896575,10.07589,-9.096152371
82,0.689908611,10.07890333,-12.50168263
83,0.690158333,10.0819,-12.9830592
84,0.6904075,10.08489,-14.71551352
85,0.690751389,10.08901667,-16.46950831
86,0.691087778,10.09305333,-17.44363684
87,0.691337778,10.09605333,-20.73173521
88,0.691586667,10.09904,-17.75293316
89,0.691838611,10.10206333,-14.59771562
90,0.692088056,10.10505667,-18.03219023
91,0.692439722,10.10927667,-21.88934553
92,0.692778056,10.11333667,-23.35356645
93,0.693025556,10.11630667,-26.513087
94,0.693274167,10.11929,-22.65656495
95,0.693523333,10.12228,-23.37033742
96,0.693773889,10.12528667,-20.35541607
97,0.694120278,10.12944333,-17.13022741
98,0.694455278,10.13346333,-19.43025081
99,0.694705,10.13646,-21.5372405
100,0.6949525,10.13943,-21.06565853
101,0.695205,10.14246,-23.00987131
102,0.695455,10.14546,-22.93417074
103,0.695804167,10.14965,-22.6186834
104,0.696141389,10.15369667,-24.87027061
105,0.696391111,10.15669333,-22.6210442
106,0.696638333,10.15966,-27.18086077
107,0.696887222,10.16264667,-27.01795352
108,0.697136389,10.16563667,-30.91606697
109,0.697481944,10.16978333,-34.34827437
110,0.697821667,10.17386,-34.49411545
111,0.698071944,10.17686333,-35.22971702
112,0.6983225,10.17987,-35.89398933
113,0.698572778,10.18287333,-34.2769742
114,0.698824444,10.18589333,-33.28640401
115,0.699169444,10.19003333,-33.27024152
116,0.699503889,10.19404667,-32.67970181
117,0.6997525,10.19703,-33.72625558
118,0.700002222,10.20001333,-32.17575879
119,0.700248611,10.20149167,-33.3208547
120,0.700496944,10.20298167,-34.93286497
121,0.700826944,10.20496167,-36.30462533
122,0.701153056,10.20691833,-37.18229471
123,0.701401667,10.20841,-38.67911688
124,0.701650278,10.20990167,-35.18316129
125,0.701900833,10.211405,-33.50064254
126,0.702155833,10.212935,-36.05520074
127,0.702523889,10.21514333,-38.20564269
128,0.702870278,10.21722167,-33.83155857
129,0.703119444,10.21871667,-30.44751184
130,0.7033725,10.220235,-29.61203267
131,0.703623889,10.22174333,-26.28226757
132,0.703876944,10.22326167,-24.64360783
133,0.704235,10.22541,-23.64531261
134,0.704578889,10.22747333,-19.27417903
135,0.704830278,10.22898167,-20.07815866
136,0.705077778,10.23046667,-19.4278277
137,0.7053325,10.231995,-22.65121979
138,0.705585556,10.23351333,-26.47261605
139,0.7059375,10.235625,-29.20474226
140,0.706278611,10.23767167,-31.91002469
141,0.706526944,10.23916167,-29.1165103
142,0.706776389,10.24065833,-26.19156104
143,0.707026667,10.24216,-23.13504231
144,0.707274444,10.24364667,-20.870423
145,0.707627222,10.24576333,-19.90783776
146,0.707968056,10.24780833,-17.91963109
147,0.708215278,10.24929167,-16.68239641
148,0.708464167,10.250785,-16.08066814
149,0.708716389,10.25229833,-16.71645094
150,0.708968611,10.25381167,-14.00023762
151,0.7093175,10.255905,-9.315119443
152,0.709656389,10.25793833,-6.301372256
153,0.709908056,10.25944833,-2.480325095
154,0.71016,10.26096,0.541344368
155,0.710408611,10.26245167,1.783011263
156,0.710660833,10.263965,3.357262013
157,0.711021944,10.26613167,4.502386921
158,0.711368889,10.26821333,2.458413605
159,0.711619167,10.269715,3.370878662
160,0.7118725,10.271235,5.375420746
161,0.712128889,10.27277333,6.460747471
162,0.712378611,10.27427167,10.19671546
163,0.712727778,10.27636667,13.6955445
164,0.713065556,10.27839333,14.24493683
165,0.713315,10.27989,14.46392633
166,0.713566389,10.28139833,14.46064327
167,0.713815,10.28289,14.16613553
168,0.714065278,10.28439167,13.04885853
169,0.714408889,10.28645333,11.9076608
170,0.714740556,10.28844333,10.37024616
171,0.714986389,10.28991833,11.81401759
172,0.715235,10.29141,12.84730859
173,0.715489167,10.292935,10.29128831
174,0.715739444,10.29443667,12.59376154
175,0.716095833,10.296575,15.15681465
176,0.716443889,10.29866333,15.66548752
177,0.716694167,10.299505,19.56123291
178,0.7169425,10.295035,25.63550202
179,0.717188611,10.290605,31.59670355
180,0.717436944,10.286135,33.21166342
181,0.717775278,10.280045,34.06392928
182,0.718105278,10.274105,33.69288115
183,0.718353333,10.26964,32.20731946
184,0.718606389,10.265085,33.44655709
185,0.718858056,10.260555,35.82099419
186,0.719112222,10.25598,33.48583131
187,0.719453611,10.249835,31.93152238
188,0.719790556,10.24377,32.20464833
189,0.720040278,10.239275,36.66205217
190,0.720289167,10.234795,41.35274737
191,0.720540278,10.230275,36.76899822
192,0.720788056,10.225815,37.16086326
193,0.721154167,10.219225,37.37161369
194,0.721506944,10.212875,32.56374329
195,0.721754444,10.20842,31.76756916
196,0.722005,10.20391,34.20402867
197,0.722254167,10.199425,35.57770463
198,0.722501944,10.194965,37.1919146
199,0.722846389,10.188765,38.02030929
200,0.723181667,10.18273,37.69342575
201,0.723428333,10.17829,32.88676682
202,0.723678889,10.17378,30.97317044
203,0.723931111,10.16924,26.18719535
204,0.724179444,10.16477,23.30080454
205,0.724535278,10.158365,20.85569146
206,0.724877778,10.1522,19.28295723
207,0.725127222,10.14771,20.03879785
208,0.725378333,10.14319,25.02744564
209,0.725630556,10.13865,28.85788754
210,0.725878889,10.13418,31.01041164
211,0.726248889,10.12752,32.75358301
212,0.726606389,10.121085,33.88149938
213,0.7268575,10.116565,38.26233382
214,0.7271075,10.112065,40.1180653
215,0.727356944,10.107575,40.56572755
216,0.727605278,10.103105,42.22484126
217,0.727951389,10.096875,43.94387435
218,0.728290278,10.090775,37.18179061
219,0.728538333,10.08631,32.59426558
220,0.7287875,10.081825,35.06112842
221,0.729042778,10.07723,29.37014766
222,0.729296667,10.07266,25.83827038
223,0.729641667,10.06645,22.46544432
224,0.729977222,10.06041,19.22744814
225,0.730225,10.05595,17.47008228
226,0.730476111,10.05143,11.15429326
227,0.7307275,10.046905,10.26573118
228,0.730980556,10.04235,9.496361508
229,0.731351389,10.035675,9.133574825
230,0.731704167,10.029325,11.51568011
231,0.731958333,10.02475,9.864870834
232,0.732208611,10.020245,11.789734
233,0.732458056,10.015755,15.1520723
234,0.73271,10.01122,17.79973088
235,0.733063056,10.004865,19.26210118
236,0.733403611,10.00084333,17.92619378
237,0.733652222,10.00382667,17.23120688
238,0.733901667,10.00682,19.45372083
239,0.734153056,10.00983667,19.18508376
240,0.734406944,10.01288333,17.48811699
241,0.734761667,10.01714,16.67955457
242,0.735104167,10.02125,15.8456346
243,0.735353611,10.02424333,15.04735698
244,0.735603056,10.02723667,11.40798949
245,0.735853611,10.03024333,9.5483449
246,0.736104167,10.03325,8.446178613
247,0.736471944,10.03766333,7.020709997
248,0.7368275,10.04193,7.507204098
249,0.737078056,10.04493667,4.22159071
250,0.737332778,10.04799333,5.596226623
251,0.737584444,10.05101333,6.535085207
252,0.737835556,10.05402667,5.513055155
253,0.738188056,10.05825667,4.528099976
254,0.738526944,10.06232333,6.435175973
255,0.7387775,10.06533,6.208496393
256,0.739026944,10.06832333,3.777854436
257,0.739276667,10.07132,-0.998511437
258,0.739525,10.0743,-3.287634935
259,0.739861389,10.07833667,-5.105023279
260,0.740191944,10.08230333,-8.809524053
261,0.740440278,10.08528333,-13.43261759
262,0.740687222,10.08824667,-15.41894916
263,0.740933889,10.09120667,-16.05448487
264,0.741179722,10.09415667,-16.63707136
265,0.741546389,10.09855667,-18.08090306
266,0.741899722,10.10279667,-17.91404137
267,0.7421475,10.10577,-14.19886898
268,0.742396944,10.10876333,-8.422961953
269,0.742649722,10.11179667,-11.89466472
270,0.742899444,10.11479333,-9.924588656
271,0.743253056,10.11903667,-6.561103931
272,0.743595833,10.12315,-6.217785789
273,0.743846111,10.12615333,-6.444430187
274,0.744096111,10.12915333,-2.765339934
275,0.744348333,10.13218,-1.41754918
276,0.744598889,10.13518667,2.491595794
277,0.744957222,10.13948667,5.88170187
278,0.745306111,10.14367333,6.397179803
279,0.7455575,10.14669,8.491401878
280,0.745808611,10.14970333,12.26704024
281,0.746055556,10.15266667,15.05285774
282,0.746303333,10.15564,20.89058915
283,0.746673889,10.16008667,26.84433994
284,0.747027778,10.16433333,25.11538546
285,0.747276944,10.16732333,25.87976183
286,0.747533889,10.17040667,22.79112717
287,0.747784167,10.17341,24.00298921
288,0.748035278,10.17642333,21.9071708
289,0.748397222,10.18076667,19.7209337
290,0.748745556,10.18494667,18.5205322
291,0.748995,10.18794,18.63266902
292,0.749245278,10.19094333,21.61261403
293,0.749497778,10.19397333,23.75463298
294,0.749750556,10.19700667,19.30861096
295,0.750111667,10.19866,14.82831907
296,0.7504625,10.19445,14.68923988
297,0.750710278,10.19147667,13.97363081
298,0.750961111,10.18846667,18.07800348
299,0.751211111,10.18546667,22.25907067
300,0.751463333,10.18244,20.74654814
301,0.751826944,10.17807667,18.46019686
302,0.752179444,10.17384667,19.05888036
303,0.752428056,10.17086333,19.65681899
304,0.752677222,10.16787333,23.6272042
305,0.752924167,10.16491,25.799831
306,0.753176389,10.16188333,24.51622459
307,0.753529722,10.15764333,23.96704731
308,0.753872778,10.15352667,24.70887581
309,0.754123056,10.15052333,29.27634948
310,0.754371389,10.14754333,33.94085065
311,0.754618889,10.14457333,31.87592746
312,0.754870278,10.14155667,37.23489518
313,0.755241389,10.13710333,42.54962942
314,0.755597778,10.13282667,40.30467315
315,0.755844722,10.12986333,41.86666338
316,0.756093889,10.12687333,43.43470225
317,0.756347222,10.12383333,44.98874862
318,0.756601944,10.12077667,46.5655867
319,0.756957222,10.11651333,48.08902412
320,0.757299167,10.11241,48.31830111
321,0.757549444,10.10940667,47.57788007
322,0.757798889,10.10641333,48.07591321
323,0.75805,10.1034,43.54561754
324,0.758301389,10.10038333,39.37186289
325,0.758637778,10.09634667,35.42460935
326,0.758964167,10.09243,31.61978161
327,0.759213333,10.08944,33.16003324
328,0.759464722,10.08642333,33.64678633
329,0.759718056,10.08338333,32.75177173
330,0.759971667,10.08034,34.27087932
331,0.760298889,10.07641333,35.01077251
332,0.7606225,10.07253,33.79680316
333,0.760872778,10.06952667,35.55693924
334,0.761124167,10.06651,33.97487322
335,0.761371667,10.06354,30.77211325
336,0.761623611,10.06051667,27.62941812
337,0.761959167,10.05649,24.94202715
338,0.762286389,10.05256333,23.92349914
339,0.762539444,10.04952667,17.34132147
340,0.762791389,10.04650333,14.29929172
341,0.763039167,10.04353,9.209370111
342,0.763287778,10.04054667,7.799392086
343,0.763635,10.03638,6.461699089
344,0.763972222,10.03233333,6.258888857
345,0.764226389,10.02928333,1.395274307
346,0.764479167,10.02625,0.692609093
347,0.764729722,10.02324333,-3.612126576
348,0.764980833,10.02023,-3.020894331
349,0.765325278,10.01609667,-2.451052469
350,0.765666111,10.01200667,-3.189680891
351,0.765917222,10.00899333,-9.504476123
352,0.766167222,10.00599333,-10.45386157
353,0.766414722,10.00302333,-11.97976933
354,0.766664167,10.00003,-9.990248701
355,0.767004167,10.002025,-8.865636779
356,0.767341111,10.00404667,-9.081880162
357,0.767589722,10.00553833,-10.94117048
358,0.7678425,10.007055,-11.42606236
359,0.768092222,10.00855333,-12.17851084
360,0.768344167,10.010065,-16.20866461
361,0.7687125,10.012275,-18.7230329
362,0.769060833,10.014365,-17.14881789
363,0.7693075,10.015845,-13.00111963
364,0.769556667,10.01734,-14.57141948
365,0.769810833,10.018865,-14.59246173
366,0.770060556,10.02036333,-12.04055896
367,0.770415833,10.022495,-9.486214123
368,0.7707575,10.024545,-9.413749119
369,0.771009722,10.02605833,-9.672323377
370,0.771261389,10.02756833,-9.417781326
371,0.7715125,10.029075,-6.45143714
372,0.771765278,10.03059167,-6.032588209
373,0.772118333,10.03271,-6.797991423
374,0.772458056,10.03474833,-5.18698232
375,0.772707778,10.03624667,-7.354388772
376,0.772954444,10.03772667,-10.93336664
377,0.773206389,10.03923833,-12.72974788
378,0.773456667,10.04074,-16.51055918
379,0.773815278,10.04289167,-19.52600445
380,0.774161111,10.04496667,-20.27218465
381,0.774409167,10.046455,-22.45538854
382,0.774659167,10.047955,-26.2148509
383,0.774908889,10.04945333,-26.06547572
384,0.775156667,10.05094,-25.79877597
385,0.775513333,10.05308,-25.3503289
386,0.775859722,10.05515833,-25.62544693
387,0.776111111,10.05666667,-26.58643391
388,0.776364444,10.05818667,-20.52632329
389,0.776611667,10.05967,-19.8523947
390,0.776861389,10.06116833,-17.14227946
391,0.777212222,10.06327333,-14.07444101
392,0.777558889,10.06535333,-12.61815209
393,0.777809722,10.06685833,-14.61109277
394,0.778061111,10.06836667,-14.27938973
395,0.778315,10.06989,-14.22396814
396,0.7785625,10.071375,-12.63766545
397,0.778899722,10.07339833,-11.70816655
398,0.779229722,10.07537833,-11.64961103
399,0.779478333,10.07687,-12.21348199
400,0.779726944,10.07836167,-8.839932207
401,0.779976667,10.07986,-4.920535401
402,0.780223333,10.08134,-1.381155171
403,0.780575,10.08345,2.991432402
404,0.78092,10.08552,3.95753255
405,0.781170556,10.08702333,5.413437452
406,0.781420833,10.088525,5.098508311
407,0.781669444,10.09001667,2.639776494
408,0.781917222,10.09150333,0.180062682
409,0.782263611,10.09358167,-3.580639455
410,0.7826025,10.095615,-5.461291453
411,0.782851944,10.09711167,-5.422077447
412,0.783098889,10.09859333,-1.542911246
413,0.783346389,10.10007833,1.45555627
414,0.783596667,10.10158,-6.742859178
415,0.783940833,10.103645,-14.5678686
416,0.784282778,10.10569667,-16.22682089
417,0.784532222,10.10719333,-19.38030647
418,0.784781667,10.10869,-15.60376219
419,0.785036667,10.11022,-12.56213789
420,0.785286944,10.11172167,-10.3900761
421,0.785647778,10.11388667,-7.753805361
422,0.785995,10.11597,-8.419092785
423,0.786241944,10.11745167,-6.416501923
424,0.786491111,10.11894667,-3.736328981
425,0.7867425,10.120455,-2.810820999
426,0.786993889,10.12196333,-2.871848346
427,0.787331944,10.12399167,-3.021667117
428,0.787663611,10.12598167,-2.115812093
429,0.787915833,10.127495,-1.292684337
430,0.788166389,10.12899833,2.620251956
431,0.788414722,10.13048833,1.715692551
432,0.788662222,10.13197333,4.263838696
433,0.789017222,10.13410333,6.970523712
434,0.789361389,10.13616833,9.401891631
435,0.789610833,10.137665,10.30040254
436,0.789864722,10.13918833,12.26003004
437,0.790116111,10.14069667,11.57087431
438,0.790368056,10.14220833,14.30271418
439,0.7907,10.1442,17.10379592
440,0.7910225,10.146135,18.99820641
441,0.791268333,10.14761,19.20953869
442,0.791515278,10.14909167,21.40307441
443,0.791764444,10.15058667,19.19922514
444,0.792015,10.15209,18.21671164
445,0.792375,10.15425,17.25447336
446,0.792725,10.15635,17.25661247
447,0.792974444,10.15784667,17.15667828
448,0.793221944,10.15933167,16.75460574
449,0.793471389,10.16082833,19.76723375
450,0.7937225,10.162335,20.57259961
451,0.79407,10.16442,20.67565968
452,0.794407778,10.16644667,21.89694626
453,0.794656667,10.16794,20.38984433
454,0.794909722,10.16945833,18.25487104
455,0.795158333,10.17095,17.03944453
456,0.795406667,10.17244,18.03337765
457,0.795748611,10.17449167,19.37438412
458,0.796081944,10.17649167,23.8154256
459,0.796328889,10.17797333,21.63005044
460,0.79658,10.17948,16.61257969
461,0.796834722,10.18100833,18.04326619
462,0.797085,10.18251,15.71476563
463,0.797426111,10.18455667,13.73119396
464,0.7977625,10.186575,14.93697107
465,0.798015556,10.18809333,13.40535947
466,0.798266667,10.1896,17.83063021
467,0.798516389,10.19109833,17.77340158
468,0.798770278,10.19262167,14.67253488
469,0.799120278,10.19472167,11.04005745
470,0.799455556,10.19673333,8.724484842
471,0.799705,10.19823,2.059311818
472,0.799953333,10.19972,-0.756379572
473,0.800206667,10.19752,-9.124254749
474,0.800461667,10.19446,-10.30335219
475,0.800810833,10.19027,-11.70936407
476,0.801146944,10.18623667,-14.56997048
477,0.8013925,10.18329,-15.69974934
478,0.801641111,10.18030667,-17.9257741
479,0.801887778,10.17734667,-19.29045356
480,0.8021375,10.17435,-22.81859963
481,0.8024825,10.17021,-26.07563597
482,0.80282,10.16616,-27.09547051
483,0.8030675,10.16319,-25.8745416
484,0.803319722,10.16016333,-24.50366266
485,0.803569444,10.15716667,-25.7933892
486,0.803820556,10.15415333,-22.82473617
487,0.804161111,10.15006667,-18.99011075
488,0.804495556,10.14605333,-21.32302582
489,0.804745,10.14306,-17.44711045
490,0.8049975,10.14003,-18.04042182
491,0.805253889,10.13695333,-12.89487241
492,0.805504444,10.13394667,-11.58523471
493,0.805848333,10.12982,-11.64647619
494,0.806183333,10.1258,-12.51654539
495,0.806435556,10.12277333,-15.41740245
496,0.806688611,10.11973667,-16.27787375
497,0.806939722,10.11672333,-16.21950609
498,0.807186389,10.11376333,-19.7313225
499,0.807533889,10.10959333,-22.38407222
500,0.807871389,10.10554333,-23.78340492
501,0.808125,10.1025,-20.24068748
502,0.808376389,10.09948333,-19.21161161
503,0.808632222,10.09641333,-17.56699542
504,0.808884722,10.09338333,-17.14052325
