Meas,Time,Temperature,Vmax.og,Vmax.inst
1,0,9.509891667,17.88641432,17.88641432
2,0.000353055,9.520483333,21.82850022,21.82850022
3,0.000604167,9.528016667,21.61702324,21.61702324
4,0.000854444,9.535525,26.98293934,26.98293934
5,0.001109444,9.543175,30.63513776,30.63513776
6,0.001365555,9.550858333,27.79225953,27.79225953
7,0.001723889,9.561608333,25.82613268,25.82613268
8,0.002065278,9.57185,29.13235412,29.13235412
9,0.002314167,9.579316667,32.95116691,32.95116691
10,0.002560555,9.586708333,30.61798796,30.61798796
11,0.002814722,9.594333333,33.93833544,33.93833544
12,0.003066944,9.6019,34.49223454,34.49223454
13,0.003393055,9.611683333,34.30367457,34.30367457
14,0.003716389,9.621383333,33.16644037,33.16644037
15,0.003966944,9.6289,35.65548022,35.65548022
16,0.004219722,9.636483333,37.62677828,37.62677828
17,0.004466944,9.6439,39.52339199,39.52339199
18,0.004717778,9.651425,35.98327825,35.98327825
19,0.005071667,9.662041667,33.17193726,33.17193726
20,0.005420555,9.672508333,34.76608394,34.76608394
21,0.005669722,9.679983333,38.98454252,38.98454252
22,0.005925278,9.68765,40.01359704,40.01359704
23,0.00618,9.695291667,44.72321457,44.72321457
24,0.006431944,9.70285,46.48320196,46.48320196
25,0.006783055,9.713383333,46.61297076,46.61297076
26,0.007126667,9.723691667,47.75009472,47.75009472
27,0.007377778,9.731225,44.77441708,44.77441708
28,0.007629722,9.738783333,40.652649,40.652649
29,0.007883055,9.746383333,39.75634837,39.75634837
30,0.008136111,9.753975,42.50214545,42.50214545
31,0.008490555,9.764608333,46.69589532,46.69589532
32,0.008828611,9.77475,48.84657951,48.84657951
33,0.009076389,9.782183333,52.99740515,52.99740515
34,0.009333333,9.789891667,49.62232124,49.62232124
35,0.009586389,9.797483333,46.08033927,46.08033927
36,0.009836389,9.804983333,41.7830986,41.7830986
37,0.010175555,9.815158333,37.80107594,37.80107594
38,0.010510833,9.825216667,35.42441804,35.42441804
39,0.010761389,9.832733333,36.02886157,36.02886157
40,0.011010833,9.840216667,35.35937401,35.35937401
41,0.011260555,9.847708333,34.41334536,34.41334536
42,0.011516944,9.8554,28.76436333,28.76436333
43,0.011873333,9.866091667,22.46436771,22.46436771
44,0.012214167,9.876316667,20.93488379,20.93488379
45,0.012461944,9.88375,17.22613811,17.22613811
46,0.012711389,9.891233333,13.21142791,13.21142791
47,0.012963333,9.898791667,9.207908135,9.207908136
48,0.013214167,9.906316667,6.321518349,6.32151835
49,0.013569167,9.916966667,3.917509017,3.917509017
50,0.013912778,9.927275,1.578850534,1.578850534
51,0.0141625,9.934766667,0.718290064,0.718290064
52,0.014414444,9.942325,0.334385817,0.334385817
53,0.014669722,9.949983333,-2.587438513,-2.587438513
54,0.014920833,9.957516667,-0.176645156,-0.176645156
55,0.015274167,9.968116667,1.707027796,1.707027796
56,0.015618055,9.978433333,2.794614639,2.794614639
57,0.015866667,9.985891667,1.605671328,1.605671328
58,0.016116667,9.993391667,3.735960483,3.735960483
59,0.0163675,10.00036667,3.95754666,3.95754666
60,0.016619444,10.00339,3.412095176,3.412095176
61,0.016963889,10.00752333,2.541988651,2.541988651
62,0.017299444,10.01155,-1.233532654,-1.233532654
63,0.017547778,10.01453,-3.166811107,-3.166811107
64,0.017800278,10.01756,-4.162918228,-4.162918229
65,0.018055,10.02061667,-6.30005515,-6.300055151
66,0.018305555,10.02362333,-8.138863267,-8.138863268
67,0.018656111,10.02783,-9.137114832,-9.137114833
68,0.018994167,10.03188667,-7.695706413,-7.695706414
69,0.019245555,10.03490333,-3.034006349,-3.034006349
70,0.019493333,10.03787667,-1.436068356,-1.436068356
71,0.019740833,10.04084667,-5.549005141,-5.549005142
72,0.019990278,10.04384,-6.483046656,-6.483046657
73,0.020360555,10.04828333,-7.303798079,-7.30379808
74,0.020712222,10.05250333,-7.062322574,-7.062322575
75,0.020961389,10.05549333,-5.575526264,-5.575526265
76,0.021210833,10.05848667,-5.766560418,-5.766560419
77,0.021458889,10.06146333,-5.390801174,-5.390801175
78,0.021707222,10.06444333,-5.245956916,-5.245956917
79,0.022065,10.06873667,-5.538860689,-5.53886069
80,0.0224125,10.07290667,-5.71035093,-5.710350931
81,0.022661111,10.07589,-9.096152371,-9.096152373
82,0.022912222,10.07890333,-12.50168263,-12.50168263
83,0.023161944,10.0819,-12.9830592,-12.9830592
84,0.023411111,10.08489,-14.71551352,-14.71551352
85,0.023755,10.08901667,-16.46950831,-16.46950831
86,0.024091389,10.09305333,-17.44363684,-17.44363684
87,0.024341389,10.09605333,-20.73173521,-20.73173521
88,0.024590278,10.09904,-17.75293316,-17.75293316
89,0.024842222,10.10206333,-14.59771562,-14.59771562
90,0.025091667,10.10505667,-18.03219023,-18.03219023
91,0.025443333,10.10927667,-21.88934553,-21.88934553
92,0.025781667,10.11333667,-23.35356645,-23.35356645
93,0.026029167,10.11630667,-26.513087,-26.51308701
94,0.026277778,10.11929,-22.65656495,-22.65656495
95,0.026526944,10.12228,-23.37033742,-23.37033742
96,0.0267775,10.12528667,-20.35541607,-20.35541607
97,0.027123889,10.12944333,-17.13022741,-17.13022741
98,0.027458889,10.13346333,-19.43025081,-19.43025081
99,0.027708611,10.13646,-21.5372405,-21.5372405
100,0.027956111,10.13943,-21.06565853,-21.06565853
101,0.028208611,10.14246,-23.00987131,-23.00987132
102,0.028458611,10.14546,-22.93417074,-22.93417075
103,0.028807778,10.14965,-22.6186834,-22.61868341
104,0.029145,10.15369667,-24.87027061,-24.87027062
105,0.029394722,10.15669333,-22.6210442,-22.62104421
106,0.029641944,10.15966,-27.18086077,-27.18086078
107,0.029890833,10.16264667,-27.01795352,-27.01795353
108,0.03014,10.16563667,-30.91606697,-30.91606698
109,0.030485555,10.16978333,-34.34827437,-34.34827438
110,0.030825278,10.17386,-34.49411545,-34.49411546
111,0.031075555,10.17686333,-35.22971702,-35.22971703
112,0.031326111,10.17987,-35.89398933,-35.89398934
113,0.031576389,10.18287333,-34.2769742,-34.27697421
114,0.031828055,10.18589333,-33.28640401,-33.28640402
115,0.032173055,10.19003333,-33.27024152,-33.27024153
116,0.0325075,10.19404667,-32.67970181,-32.67970182
117,0.032756111,10.19703,-33.72625558,-33.72625559
118,0.033005833,10.20001333,-32.17575879,-32.1757588
119,0.033252222,10.20149167,-33.3208547,-33.32085471
120,0.033500555,10.20298167,-34.93286497,-34.93286498
121,0.033830555,10.20496167,-36.30462533,-36.30462534
122,0.034156667,10.20691833,-37.18229471,-37.18229472
123,0.034405278,10.20841,-38.67911688,-38.67911689
124,0.034653889,10.20990167,-35.18316129,-35.1831613
125,0.034904444,10.211405,-33.50064254,-33.50064255
126,0.035159444,10.212935,-36.05520074,-36.05520075
127,0.0355275,10.21514333,-38.20564269,-38.2056427
128,0.035873889,10.21722167,-33.83155857,-33.83155858
129,0.036123055,10.21871667,-30.44751184,-30.44751185
130,0.036376111,10.220235,-29.61203267,-29.61203268
131,0.0366275,10.22174333,-26.28226757,-26.28226758
132,0.036880555,10.22326167,-24.64360783,-24.64360784
133,0.037238611,10.22541,-23.64531261,-23.64531262
134,0.0375825,10.22747333,-19.27417903,-19.27417904
135,0.037833889,10.22898167,-20.07815866,-20.07815867
136,0.038081389,10.23046667,-19.4278277,-19.42782771
137,0.038336111,10.231995,-22.65121979,-22.6512198
138,0.038589167,10.23351333,-26.47261605,-26.47261606
139,0.038941111,10.235625,-29.20474226,-29.20474227
140,0.039282222,10.23767167,-31.91002469,-31.9100247
141,0.039530555,10.23916167,-29.1165103,-29.11651031
142,0.03978,10.24065833,-26.19156104,-26.19156105
143,0.040030278,10.24216,-23.13504231,-23.13504232
144,0.040278055,10.24364667,-20.870423,-20.87042301
145,0.040630833,10.24576333,-19.90783776,-19.90783777
146,0.040971667,10.24780833,-17.91963109,-17.9196311
147,0.041218889,10.24929167,-16.68239641,-16.68239642
148,0.041467778,10.250785,-16.08066814,-16.08066815
149,0.04172,10.25229833,-16.71645094,-16.71645095
150,0.041972222,10.25381167,-14.00023762,-14.00023763
151,0.042321111,10.255905,-9.315119443,-9.315119446
152,0.04266,10.25793833,-6.301372256,-6.301372258
153,0.042911667,10.25944833,-2.480325095,-2.480325096
154,0.043163611,10.26096,0.541344368,0.541344368
155,0.043412222,10.26245167,1.783011263,1.783011264
156,0.043664444,10.263965,3.357262013,3.357262014
157,0.044025555,10.26613167,4.502386921,4.502386923
158,0.0443725,10.26821333,2.458413605,2.458413606
159,0.044622778,10.269715,3.370878662,3.370878663
160,0.044876111,10.271235,5.375420746,5.375420748
161,0.0451325,10.27277333,6.460747471,6.460747474
162,0.045382222,10.27427167,10.19671546,10.19671546
163,0.045731389,10.27636667,13.6955445,13.69554451
164,0.046069167,10.27839333,14.24493683,14.24493684
165,0.046318611,10.27989,14.46392633,14.46392634
166,0.04657,10.28139833,14.46064327,14.46064328
167,0.046818611,10.28289,14.16613553,14.16613554
168,0.047068889,10.28439167,13.04885853,13.04885854
169,0.0474125,10.28645333,11.9076608,11.9076608
170,0.047744167,10.28844333,10.37024616,10.37024616
171,0.04799,10.28991833,11.81401759,11.81401759
172,0.048238611,10.29141,12.84730859,12.8473086
173,0.048492778,10.292935,10.29128831,10.29128831
174,0.048743055,10.29443667,12.59376154,12.59376155
175,0.049099444,10.296575,15.15681465,15.15681466
176,0.0494475,10.29866333,15.66548752,15.66548753
177,0.049697778,10.299505,19.56123291,19.56123292
178,0.049946111,10.295035,25.63550202,25.63550203
179,0.050192222,10.290605,31.59670355,31.59670356
180,0.050440555,10.286135,33.21166342,33.21166343
181,0.050778889,10.280045,34.06392928,34.0639293
182,0.051108889,10.274105,33.69288115,33.69288117
183,0.051356944,10.26964,32.20731946,32.20731947
184,0.05161,10.265085,33.44655709,33.44655711
185,0.051861667,10.260555,35.82099419,35.82099421
186,0.052115833,10.25598,33.48583131,33.48583133
187,0.052457222,10.249835,31.93152238,31.93152239
188,0.052794167,10.24377,32.20464833,32.20464835
189,0.053043889,10.239275,36.66205217,36.66205219
190,0.053292778,10.234795,41.35274737,41.35274739
191,0.053543889,10.230275,36.76899822,36.76899824
192,0.053791667,10.225815,37.16086326,37.16086328
193,0.054157778,10.219225,37.37161369,37.37161371
194,0.054510555,10.212875,32.56374329,32.56374331
195,0.054758055,10.20842,31.76756916,31.76756918
196,0.055008611,10.20391,34.20402867,34.20402869
197,0.055257778,10.199425,35.57770463,35.57770465
198,0.055505555,10.194965,37.1919146,37.19191462
199,0.05585,10.188765,38.02030929,38.02030931
200,0.056185278,10.18273,37.69342575,37.69342577
201,0.056431944,10.17829,32.88676682,32.88676684
202,0.0566825,10.17378,30.97317044,30.97317046
203,0.056934722,10.16924,26.18719535,26.18719536
204,0.057183055,10.16477,23.30080454,23.30080455
205,0.057538889,10.158365,20.85569146,20.85569147
206,0.057881389,10.1522,19.28295723,19.28295724
207,0.058130833,10.14771,20.03879785,20.03879786
208,0.058381944,10.14319,25.02744564,25.02744565
209,0.058634167,10.13865,28.85788754,28.85788756
210,0.0588825,10.13418,31.01041164,31.01041166
211,0.0592525,10.12752,32.75358301,32.75358303
212,0.05961,10.121085,33.88149938,33.8814994
213,0.059861111,10.116565,38.26233382,38.26233384
214,0.060111111,10.112065,40.1180653,40.11806532
215,0.060360555,10.107575,40.56572755,40.56572757
216,0.060608889,10.103105,42.22484126,42.22484128
217,0.060955,10.096875,43.94387435,43.94387437
218,0.061293889,10.090775,37.18179061,37.18179063
219,0.061541944,10.08631,32.59426558,32.5942656
220,0.061791111,10.081825,35.06112842,35.06112844
221,0.062046389,10.07723,29.37014766,29.37014768
222,0.062300278,10.07266,25.83827038,25.83827039
223,0.062645278,10.06645,22.46544432,22.46544433
224,0.062980833,10.06041,19.22744814,19.22744815
225,0.063228611,10.05595,17.47008228,17.47008229
226,0.063479722,10.05143,11.15429326,11.15429327
227,0.063731111,10.046905,10.26573118,10.26573119
228,0.063984167,10.04235,9.496361508,9.496361513
229,0.064355,10.035675,9.133574825,9.13357483
230,0.064707778,10.029325,11.51568011,11.51568012
231,0.064961944,10.02475,9.864870834,9.86487084
232,0.065212222,10.020245,11.789734,11.78973401
233,0.065461667,10.015755,15.1520723,15.15207231
234,0.065713611,10.01122,17.79973088,17.79973089
235,0.066066667,10.004865,19.26210118,19.26210119
236,0.066407222,10.00084333,17.92619378,17.92619379
237,0.066655833,10.00382667,17.23120688,17.23120689
238,0.066905278,10.00682,19.45372083,19.45372084
239,0.067156667,10.00983667,19.18508376,19.18508377
240,0.067410555,10.01288333,17.48811699,17.488117
241,0.067765278,10.01714,16.67955457,16.67955458
242,0.068107778,10.02125,15.8456346,15.84563461
243,0.068357222,10.02424333,15.04735698,15.04735699
244,0.068606667,10.02723667,11.40798949,11.4079895
245,0.068857222,10.03024333,9.5483449,9.548344906
246,0.069107778,10.03325,8.446178613,8.446178618
247,0.069475555,10.03766333,7.020709997,7.020710001
248,0.069831111,10.04193,7.507204098,7.507204103
249,0.070081667,10.04493667,4.22159071,4.221590713
250,0.070336389,10.04799333,5.596226623,5.596226627
251,0.070588055,10.05101333,6.535085207,6.535085211
252,0.070839167,10.05402667,5.513055155,5.513055159
253,0.071191667,10.05825667,4.528099976,4.528099979
254,0.071530555,10.06232333,6.435175973,6.435175977
255,0.071781111,10.06533,6.208496393,6.208496397
256,0.072030555,10.06832333,3.777854436,3.777854438
257,0.072280278,10.07132,-0.998511437,-0.998511438
258,0.072528611,10.0743,-3.287634935,-3.287634937
259,0.072865,10.07833667,-5.105023279,-5.105023282
260,0.073195555,10.08230333,-8.809524053,-8.809524059
261,0.073443889,10.08528333,-13.43261759,-13.4326176
262,0.073690833,10.08824667,-15.41894916,-15.41894917
263,0.0739375,10.09120667,-16.05448487,-16.05448488
264,0.074183333,10.09415667,-16.63707136,-16.63707137
265,0.07455,10.09855667,-18.08090306,-18.08090307
266,0.074903333,10.10279667,-17.91404137,-17.91404138
267,0.075151111,10.10577,-14.19886898,-14.19886899
268,0.075400555,10.10876333,-8.422961953,-8.422961959
269,0.075653333,10.11179667,-11.89466472,-11.89466473
270,0.075903055,10.11479333,-9.924588656,-9.924588663
271,0.076256667,10.11903667,-6.561103931,-6.561103935
272,0.076599444,10.12315,-6.217785789,-6.217785793
273,0.076849722,10.12615333,-6.444430187,-6.444430191
274,0.077099722,10.12915333,-2.765339934,-2.765339936
275,0.077351944,10.13218,-1.41754918,-1.417549181
276,0.0776025,10.13518667,2.491595794,2.491595796
277,0.077960833,10.13948667,5.88170187,5.881701874
278,0.078309722,10.14367333,6.397179803,6.397179808
279,0.078561111,10.14669,8.491401878,8.491401884
280,0.078812222,10.14970333,12.26704024,12.26704025
281,0.079059167,10.15266667,15.05285774,15.05285775
282,0.079306944,10.15564,20.89058915,20.89058916
283,0.0796775,10.16008667,26.84433994,26.84433996
284,0.080031389,10.16433333,25.11538546,25.11538548
285,0.080280555,10.16732333,25.87976183,25.87976185
286,0.0805375,10.17040667,22.79112717,22.79112719
287,0.080787778,10.17341,24.00298921,24.00298923
288,0.081038889,10.17642333,21.9071708,21.90717082
289,0.081400833,10.18076667,19.7209337,19.72093371
290,0.081749167,10.18494667,18.5205322,18.52053221
291,0.081998611,10.18794,18.63266902,18.63266903
292,0.082248889,10.19094333,21.61261403,21.61261405
293,0.082501389,10.19397333,23.75463298,23.754633
294,0.082754167,10.19700667,19.30861096,19.30861097
295,0.083115278,10.19866,14.82831907,14.82831908
296,0.083466111,10.19445,14.68923988,14.68923989
297,0.083713889,10.19147667,13.97363081,13.97363082
298,0.083964722,10.18846667,18.07800348,18.07800349
299,0.084214722,10.18546667,22.25907067,22.25907069
300,0.084466944,10.18244,20.74654814,20.74654816
301,0.084830555,10.17807667,18.46019686,18.46019687
302,0.085183055,10.17384667,19.05888036,19.05888037
303,0.085431667,10.17086333,19.65681899,19.65681901
304,0.085680833,10.16787333,23.6272042,23.62720422
305,0.085927778,10.16491,25.799831,25.79983102
306,0.08618,10.16188333,24.51622459,24.51622461
307,0.086533333,10.15764333,23.96704731,23.96704733
308,0.086876389,10.15352667,24.70887581,24.70887583
309,0.087126667,10.15052333,29.27634948,29.2763495
310,0.087375,10.14754333,33.94085065,33.94085068
311,0.0876225,10.14457333,31.87592746,31.87592749
312,0.087873889,10.14155667,37.23489518,37.23489521
313,0.088245,10.13710333,42.54962942,42.54962945
314,0.088601389,10.13282667,40.30467315,40.30467318
315,0.088848333,10.12986333,41.86666338,41.86666341
316,0.0890975,10.12687333,43.43470225,43.43470229
317,0.089350833,10.12383333,44.98874862,44.98874866
318,0.089605555,10.12077667,46.5655867,46.56558674
319,0.089960833,10.11651333,48.08902412,48.08902416
320,0.090302778,10.11241,48.31830111,48.31830115
321,0.090553055,10.10940667,47.57788007,47.57788011
322,0.0908025,10.10641333,48.07591321,48.07591325
323,0.091053611,10.1034,43.54561754,43.54561758
324,0.091305,10.10038333,39.37186289,39.37186292
325,0.091641389,10.09634667,35.42460935,35.42460938
326,0.091967778,10.09243,31.61978161,31.61978164
327,0.092216944,10.08944,33.16003324,33.16003327
328,0.092468333,10.08642333,33.64678633,33.64678636
329,0.092721667,10.08338333,32.75177173,32.75177176
330,0.092975278,10.08034,34.27087932,34.27087935
331,0.0933025,10.07641333,35.01077251,35.01077254
332,0.093626111,10.07253,33.79680316,33.79680319
333,0.093876389,10.06952667,35.55693924,35.55693927
334,0.094127778,10.06651,33.97487322,33.97487325
335,0.094375278,10.06354,30.77211325,30.77211328
336,0.094627222,10.06051667,27.62941812,27.62941814
337,0.094962778,10.05649,24.94202715,24.94202717
338,0.09529,10.05256333,23.92349914,23.92349916
339,0.095543055,10.04952667,17.34132147,17.34132149
340,0.095795,10.04650333,14.29929172,14.29929173
341,0.096042778,10.04353,9.209370111,9.209370119
342,0.096291389,10.04054667,7.799392086,7.799392093
343,0.096638611,10.03638,6.461699089,6.461699095
344,0.096975833,10.03233333,6.258888857,6.258888863
345,0.09723,10.02928333,1.395274307,1.395274308
346,0.097482778,10.02625,0.692609093,0.692609094
347,0.097733333,10.02324333,-3.612126576,-3.612126579
348,0.097984444,10.02023,-3.020894331,-3.020894334
349,0.098328889,10.01609667,-2.451052469,-2.451052471
350,0.098669722,10.01200667,-3.189680891,-3.189680894
351,0.098920833,10.00899333,-9.504476123,-9.504476132
352,0.099170833,10.00599333,-10.45386157,-10.45386158
353,0.099418333,10.00302333,-11.97976933,-11.97976934
354,0.099667778,10.00003,-9.990248701,-9.99024871
355,0.100007778,10.002025,-8.865636779,-8.865636787
356,0.100344722,10.00404667,-9.081880162,-9.08188017
357,0.100593333,10.00553833,-10.94117048,-10.94117049
358,0.100846111,10.007055,-11.42606236,-11.42606237
359,0.101095833,10.00855333,-12.17851084,-12.17851085
360,0.101347778,10.010065,-16.20866461,-16.20866463
361,0.101716111,10.012275,-18.7230329,-18.72303292
362,0.102064444,10.014365,-17.14881789,-17.14881791
363,0.102311111,10.015845,-13.00111963,-13.00111964
364,0.102560278,10.01734,-14.57141948,-14.57141949
365,0.102814444,10.018865,-14.59246173,-14.59246174
366,0.103064167,10.02036333,-12.04055896,-12.04055897
367,0.103419444,10.022495,-9.486214123,-9.486214132
368,0.103761111,10.024545,-9.413749119,-9.413749128
369,0.104013333,10.02605833,-9.672323377,-9.672323386
370,0.104265,10.02756833,-9.417781326,-9.417781335
371,0.104516111,10.029075,-6.45143714,-6.451437146
372,0.104768889,10.03059167,-6.032588209,-6.032588215
373,0.105121944,10.03271,-6.797991423,-6.79799143
374,0.105461667,10.03474833,-5.18698232,-5.186982325
375,0.105711389,10.03624667,-7.354388772,-7.354388779
376,0.105958055,10.03772667,-10.93336664,-10.93336665
377,0.10621,10.03923833,-12.72974788,-12.72974789
378,0.106460278,10.04074,-16.51055918,-16.5105592
379,0.106818889,10.04289167,-19.52600445,-19.52600447
380,0.107164722,10.04496667,-20.27218465,-20.27218467
381,0.107412778,10.046455,-22.45538854,-22.45538856
382,0.107662778,10.047955,-26.2148509,-26.21485093
383,0.1079125,10.04945333,-26.06547572,-26.06547575
384,0.108160278,10.05094,-25.79877597,-25.798776
385,0.108516944,10.05308,-25.3503289,-25.35032893
