Meas,Time,Temperature,Vmax
1,0.233703333,9.81998,100.1601811
2,0.233948611,9.833225,99.18900205
3,0.234194167,9.846485,101.910456
4,0.234439167,9.859715,101.9132176
5,0.234821944,9.880385,102.8615725
6,0.235186667,9.90008,104.6407372
7,0.235433333,9.9134,106.8589023
8,0.235684444,9.92696,105.2335712
9,0.235933056,9.940385,101.4956491
10,0.236182778,9.95387,100.3543194
11,0.236561667,9.97433,99.05934189
12,0.236921944,9.993785,97.66553356
13,0.237168333,10.00709,94.37718807
14,0.237418889,10.02062,96.15411077
15,0.237671111,10.03424,91.03112032
16,0.237925833,10.047995,87.32309257
17,0.238308056,10.068635,82.7123343
18,0.238674167,10.088405,80.02514036
19,0.238924444,10.10192,78.49282264
20,0.239173056,10.115345,79.16776965
21,0.239421667,10.12877,82.53118793
22,0.239672222,10.1423,79.50838003
23,0.240053333,10.16288,76.93429535
24,0.240416944,10.182515,73.19908567
25,0.240665,10.19591,73.79239642
26,0.240912778,10.20929,67.27144773
27,0.241165278,10.222925,67.67597203
28,0.241414444,10.23638,69.0891925
29,0.241791111,10.25672,70.27666776
30,0.242149167,10.276055,65.85732235
31,0.242398611,10.289525,63.09968331
32,0.242651111,10.30316,58.81500818
33,0.242900556,10.31663,55.65542419
34,0.243146944,10.329935,57.94651879
35,0.243524444,10.35032,60.7609822
36,0.243885278,10.369805,63.78220132
37,0.244133889,10.38323,65.93301628
38,0.244384167,10.396745,66.30530182
39,0.244635556,10.41032,65.89842001
40,0.244885,10.42379,67.79468758
41,0.245267778,10.44446,68.51285055
42,0.245637778,10.46444,66.46555511
43,0.245884444,10.47776,68.48266847
44,0.246133056,10.491185,61.90482756
45,0.2463825,10.504655,61.62359369
46,0.246633056,10.518185,60.69414187
47,0.247006667,10.53836,60.03075663
48,0.247362222,10.55756,60.23350338
49,0.247609722,10.570925,57.48348676
50,0.24786,10.58444,61.38059164
51,0.248109722,10.597925,60.07302444
52,0.248359167,10.611395,62.74144353
53,0.24873,10.63142,65.8115837
54,0.249086389,10.650665,65.18422341
55,0.249334722,10.664075,61.5669835
56,0.2495825,10.677455,59.83842059
57,0.249831944,10.690925,64.74761128
58,0.250085,10.69643,65.67173454
59,0.2504625,10.680575,66.34557085
60,0.250823611,10.66540833,66.15435715
61,0.251073889,10.65489667,67.08781764
62,0.2513225,10.644455,70.05743497
63,0.251569722,10.63407167,71.97063101
64,0.251821944,10.62347833,74.06961592
65,0.252209722,10.60719167,76.73762646
66,0.252577778,10.59173333,77.10864138
67,0.252826111,10.58130333,84.11595766
68,0.253072222,10.57096667,91.61788381
69,0.253324444,10.56037333,91.78352437
70,0.253574444,10.54987333,97.02074708
71,0.253951389,10.53404167,100.719795
72,0.254311944,10.51889833,99.02970623
73,0.254560278,10.50846833,98.21278137
74,0.254808333,10.49805,100.6392557
75,0.255057778,10.48757333,97.35417732
76,0.255305278,10.47717833,98.02181774
77,0.255680556,10.46141667,98.8335496
78,0.256038056,10.44640167,93.61929122
79,0.256285,10.43603,88.69955042
80,0.2565325,10.425635,87.9360443
81,0.256781944,10.41515833,86.16479431
82,0.257031389,10.40468167,90.24738729
83,0.257409722,10.38879167,95.00852862
84,0.257770278,10.37364833,90.66519024
85,0.258019167,10.363195,88.99042615
86,0.258267778,10.35275333,85.51699815
87,0.258516389,10.34231167,85.28754963
88,0.258765,10.33187,83.06868943
89,0.259144167,10.315945,80.32400129
90,0.2595075,10.300685,76.10253349
91,0.259755833,10.290255,72.01337203
92,0.260006389,10.27973167,67.84163345
93,0.260256111,10.26924333,70.1645897
94,0.260505278,10.25877833,68.32612039
95,0.260888333,10.24269,66.2614074
96,0.261250833,10.227465,63.931165
97,0.261498889,10.21704667,64.53159393
98,0.261746111,10.20666333,61.11626647
99,0.261991944,10.19633833,61.33540231
100,0.262239722,10.18593167,62.703767
101,0.262618889,10.17000667,63.94323275
102,0.2629825,10.154735,66.14495512
103,0.263232222,10.14424667,65.27924794
104,0.263484444,10.13365333,65.68454072
105,0.263734444,10.12315333,65.54176988
106,0.263981389,10.11278167,68.61671877
107,0.264358889,10.09692667,71.719838
108,0.264718889,10.08180667,68.73348347
109,0.26497,10.07126,70.49242448
110,0.265218333,10.06083,72.32724357
111,0.265468889,10.05030667,71.58045291
112,0.2657175,10.039865,76.39985107
113,0.2661,10.0238,81.73884709
114,0.266461944,10.00859833,78.5138872
115,0.266713333,10.00084,79.4388541
116,0.266961944,10.005315,82.95721915
117,0.267211111,10.0098,84.89477679
118,0.267460833,10.014295,87.08911726
119,0.267836389,10.021055,88.99872167
120,0.268193889,10.02749,87.89909958
121,0.268444167,10.031995,90.15194819
122,0.268692778,10.03647,87.62886875
123,0.268941389,10.040945,89.26862887
124,0.269192222,10.04546,90.1499761
125,0.269564167,10.052155,91.47513034
126,0.269921389,10.058585,89.28891321
127,0.270166389,10.062995,91.26720278
128,0.270415,10.06747,91.17352752
129,0.270665278,10.071975,87.49427969
130,0.270913611,10.076445,87.89820793
131,0.271286667,10.08316,87.92274511
132,0.271642778,10.08957,89.38504615
133,0.27189,10.09402,89.11705378
134,0.272136667,10.09846,92.03570694
135,0.272386944,10.102965,86.35684971
136,0.272639167,10.107505,85.0750288
137,0.273011944,10.114215,82.7276662
138,0.273370278,10.120665,82.95854575
139,0.273616667,10.1251,79.90169016
140,0.273863333,10.12954,80.7322825
141,0.274110833,10.133995,78.65750763
142,0.274362222,10.13852,71.53525791
143,0.274736944,10.145265,65.06146949
144,0.275091667,10.15165,63.10672069
145,0.275342778,10.15617,65.29763179
146,0.275592222,10.16066,61.33477356
147,0.275838056,10.165085,60.27863253
148,0.276083889,10.16951,59.80120456
149,0.276461944,10.176315,59.07965512
150,0.276824722,10.182845,55.04928551
151,0.277074444,10.18734,53.45123615
152,0.277322778,10.19181,48.62090944
153,0.277569444,10.19625,44.95718436
154,0.277819167,10.200745,46.40264196
155,0.278202778,10.20765,48.28233805
156,0.278566389,10.214195,48.54621129
157,0.278814167,10.218655,48.96131825
158,0.279060556,10.22309,47.25405294
159,0.2793075,10.227535,42.46462424
160,0.279556667,10.23202,43.22345342
161,0.279936944,10.238865,43.51241628
162,0.280302778,10.24545,39.79093012
163,0.28055,10.2499,37.8687289
164,0.280798611,10.254375,32.58909691
165,0.281050833,10.258915,32.50096679
166,0.281303333,10.26346,31.31495706
167,0.281676111,10.27017,29.61773965
168,0.282032222,10.27658,30.92069205
169,0.28228,10.28104,28.39358688
170,0.282526667,10.28548,30.41492839
171,0.282771667,10.28989,31.60275999
172,0.283020833,10.294375,33.0287961
173,0.283394444,10.30036667,34.75170714
174,0.283753889,10.30252333,35.59606811
175,0.284002222,10.30401333,35.06890592
176,0.284251667,10.30551,31.71163986
177,0.284500556,10.30700333,34.85627215
178,0.284748611,10.30849167,40.33487037
179,0.285121667,10.31073,45.98003189
180,0.285481667,10.31289,47.56831841
181,0.285731944,10.31439167,48.11395662
182,0.2859825,10.315895,47.56534117
183,0.286232778,10.31739667,45.22266625
184,0.286482222,10.31889333,46.62392288
185,0.286863333,10.32118,48.56020727
186,0.287226944,10.32336167,45.20848768
187,0.287477222,10.32486333,47.30860259
188,0.287723056,10.32633833,53.89768623
189,0.287969167,10.327815,54.02807732
190,0.288219444,10.32931667,60.60947134
191,0.288601111,10.33160667,65.69930267
192,0.288962222,10.33377333,68.7081689
193,0.289207778,10.33524667,68.6270277
194,0.28946,10.33676,71.32052046
195,0.289708889,10.33825333,72.16380801
196,0.289953611,10.33972167,71.98583401
197,0.290338056,10.34202833,72.32846227
198,0.290702778,10.34421667,69.5594462
199,0.290952222,10.34571333,65.37286359
200,0.291197222,10.34718333,65.154566
201,0.291442778,10.34865667,66.10010343
202,0.291693333,10.35016,70.09055178
203,0.292066111,10.35239667,74.20672052
204,0.292420556,10.35452333,70.69769316
205,0.292669167,10.356015,70.92599142
206,0.292915833,10.357495,68.90367028
207,0.293168056,10.35900833,65.28420938
208,0.293418611,10.36051167,57.70477663
209,0.293795,10.36277,49.14917492
210,0.294156667,10.36494,45.27282748
211,0.294404444,10.36642667,44.50734254
212,0.294652222,10.36791333,38.99868494
213,0.294898611,10.36939167,37.70059527
214,0.295145556,10.37087333,35.24555149
215,0.295531667,10.37319,32.97336866
216,0.295896389,10.37537833,33.82223688
217,0.2961425,10.376855,35.40519405
218,0.296390833,10.378345,34.3965114
219,0.296639444,10.37983667,31.17331946
220,0.296887778,10.38132667,30.74068606
221,0.29727,10.38362,30.72430869
222,0.297628889,10.38577333,30.59960081
223,0.297875556,10.38725333,29.36379374
224,0.298126111,10.38875667,28.77273154
225,0.29838,10.39028,29.68148159
226,0.298629722,10.39177833,31.52047071
227,0.299005278,10.39403167,33.0942702
228,0.299363333,10.39618,33.9340243
229,0.29961,10.39766,35.69635367
230,0.299858333,10.39915,39.87752994
231,0.300104444,10.39812,42.27815126
232,0.300351667,10.39367,45.19032485
233,0.300723056,10.386985,48.2290155
234,0.301079167,10.380575,47.49842391
235,0.301330278,10.376055,50.97375416
236,0.301578056,10.371595,53.07345308
237,0.301826667,10.36712,55.74853446
238,0.302076111,10.36263,55.94753726
239,0.302449167,10.355915,56.22577406
240,0.302808056,10.349455,51.66568476
241,0.303056667,10.34498,51.23223619
242,0.303308889,10.34044,54.55357615
243,0.303556389,10.335985,52.78327083
244,0.303804722,10.331515,54.00527037
245,0.304178611,10.324785,55.27602971
246,0.304537778,10.31832,52.3485945
247,0.304786944,10.313835,52.56679976
248,0.305034167,10.309385,51.90445992
249,0.305285278,10.304865,57.77915057
250,0.305535556,10.30036,57.66913573
251,0.305913056,10.293565,56.85494938
252,0.306272222,10.2871,59.98003066
253,0.306520278,10.282635,64.37532398
254,0.306767222,10.27819,66.2978912
255,0.307017778,10.27368,63.72915247
256,0.307268056,10.269175,63.34605841
257,0.3076525,10.262255,62.97357722
258,0.308019722,10.255645,65.95757045
259,0.308271389,10.251115,61.61652182
260,0.3085225,10.246595,63.08309136
261,0.308771944,10.242105,61.99627681
262,0.309023333,10.23758,53.73602109
263,0.309395278,10.230885,45.98205749
264,0.309756111,10.22439,47.61667206
265,0.310005556,10.2199,50.85458208
266,0.310254722,10.215415,47.40281076
267,0.310501111,10.21098,50.01206917
268,0.310749444,10.20651,51.7284326
269,0.311125833,10.199735,53.30370787
270,0.311485833,10.193255,55.35759266
271,0.311736111,10.18875,57.17635532
272,0.311984722,10.184275,55.37345183
273,0.312233889,10.17979,53.68869943
274,0.312483611,10.175295,53.65237138
275,0.312865556,10.16842,53.64507073
276,0.313228611,10.161885,55.44367653
277,0.313475,10.15745,58.28376185
278,0.313728056,10.152895,57.80389199
279,0.313979722,10.148365,58.2899222
280,0.314228056,10.143895,61.31926038
281,0.314611667,10.13699,63.6377024
282,0.314979167,10.130375,61.4130124
283,0.315225556,10.12594,57.2824425
284,0.315471667,10.12151,52.20423212
285,0.31572,10.11704,53.2039836
286,0.315968056,10.112575,55.08596751
287,0.316340278,10.105875,56.73708981
288,0.316697778,10.10037333,55.4046913
289,0.316943611,10.10332333,54.76518679
290,0.317191111,10.10629333,55.16674408
291,0.317436944,10.10924333,54.66103871
292,0.317683889,10.11220667,57.64506212
293,0.318064722,10.11677667,61.392387
294,0.318429167,10.12115,65.29008789
295,0.318676944,10.12412333,64.3592772
296,0.318929167,10.12715,60.01008247
297,0.319185833,10.13023,59.2593127
298,0.319437222,10.13324667,63.06380616
299,0.319815556,10.13778667,66.55786775
300,0.320175556,10.14210667,66.55737124
301,0.320423056,10.14507667,68.61747317
302,0.320671667,10.14806,68.40141441
303,0.320922778,10.15107333,65.11260327
304,0.321171389,10.15405667,66.45777826
305,0.321559722,10.15871667,67.57121874
306,0.321929167,10.16315,64.90784811
307,0.322178333,10.16614,65.33889684
308,0.322426111,10.16911333,62.74974268
309,0.322676389,10.17211667,59.83013005
310,0.322925278,10.17510333,57.37361049
311,0.323309444,10.17971333,54.56661727
312,0.323674167,10.18409,53.96085754
313,0.323924722,10.18709667,50.71497085
314,0.324173056,10.19007667,49.31039058
315,0.3244225,10.19307,50.01481904
316,0.32467,10.19604,49.28647736
317,0.325057778,10.20069333,48.9971104
318,0.325426944,10.20512333,48.43619821
319,0.325675556,10.20810667,49.63086924
320,0.325921944,10.21106333,54.17310329
321,0.326173056,10.21407667,57.06604012
322,0.326421944,10.21706333,56.90459739
323,0.326800833,10.22161,56.3190583
324,0.327163056,10.22595667,52.43713107
325,0.327411389,10.22893667,51.13174171
326,0.327660278,10.23192333,47.94653964
327,0.327909722,10.23491667,48.75762648
328,0.328159167,10.23791,42.85657105
329,0.328538056,10.24245667,36.64083772
330,0.328897222,10.24676667,35.47635281
331,0.329145833,10.24975,36.56961062
332,0.329396111,10.25275333,31.3548732
333,0.329650278,10.25580333,26.60279802
334,0.329901389,10.25881667,24.51002259
335,0.330282222,10.26338667,22.33358781
336,0.330645278,10.26774333,21.27990692
337,0.330892778,10.27071333,20.85255272
338,0.331138611,10.27366333,20.18529019
339,0.331386111,10.27663333,21.48095199
340,0.331635556,10.27962667,22.46259337
341,0.332009444,10.28411333,24.00212621
342,0.332369722,10.28843667,24.244719
343,0.332618056,10.29141667,22.38262343
344,0.3328675,10.29441,21.9753312
345,0.333118611,10.29742333,20.69297142
346,0.333367222,10.30061,19.84355527
347,0.333745556,10.30742,18.04004896
348,0.334106389,10.313915,18.33494384
349,0.3343525,10.318345,19.87782717
350,0.334598333,10.32277,23.9099989
351,0.334845,10.32721,27.0982025
352,0.335095278,10.331715,31.23824643
353,0.335476389,10.338575,35.38348877
354,0.335839167,10.345105,37.12581943
355,0.336085833,10.349545,36.96100946
356,0.336333889,10.35401,42.23202374
357,0.336583611,10.358505,43.76040482
358,0.336834167,10.363015,45.49613525
359,0.337214167,10.369855,47.09545524
360,0.337578889,10.37642,46.41939349
361,0.337829722,10.380935,45.96526298
362,0.338078333,10.38541,48.88378836
363,0.338329722,10.389935,47.57659136
364,0.338574722,10.394345,52.33163144
365,0.338947222,10.40105,57.00841401
366,0.339305556,10.4075,57.42089296
367,0.339556944,10.412025,53.57171649
368,0.339808056,10.416545,50.69671673
369,0.340055833,10.421005,55.60234739
370,0.340303333,10.42546,55.15232884
371,0.340676944,10.432185,54.47615622
372,0.341034444,10.43862,58.19471672
373,0.341286944,10.443165,63.24843661
374,0.341535278,10.447635,63.21865075
375,0.341784722,10.452125,62.44871148
376,0.342034167,10.456615,57.41058623
377,0.342413611,10.463445,53.15885287
378,0.342776944,10.469985,54.50382934
379,0.343025556,10.47446,52.49200672
380,0.343278611,10.479015,52.31674992
381,0.343528889,10.48352,50.57440314
382,0.343777778,10.488,50.35746238
383,0.344159167,10.494865,50.14346081
384,0.344519444,10.50135,52.81445645
385,0.344768611,10.505835,55.46444369
386,0.345019167,10.510345,54.78623169
387,0.345267222,10.51481,56.8387928
388,0.345516111,10.51929,60.84064103
389,0.345895833,10.526125,64.44404764
390,0.346259167,10.532665,68.68839573
391,0.346508056,10.537145,69.68872039
392,0.346759722,10.541675,68.8046597
393,0.347011389,10.546205,70.61282088
394,0.347263333,10.55074,70.2748392
395,0.347644444,10.5576,70.31801544
396,0.348006389,10.564115,70.91732022
397,0.348252222,10.56854,73.52945492
398,0.348501389,10.573025,75.66522373
399,0.348749167,10.577485,78.26341149
400,0.348997778,10.58196,80.8292431
401,0.349383333,10.5889,82.54280606
402,0.349748889,10.59548,80.1834132
403,0.349997222,10.59995,76.69242434
404,0.350247778,10.59405333,73.94464337
405,0.350498889,10.58802667,74.32820301
406,0.3507475,10.58206,72.07538229
407,0.351119444,10.57313333,70.35649958
408,0.351476944,10.56455333,67.5429213
409,0.351726111,10.55857333,66.64130242
410,0.351974444,10.55261333,68.50026542
411,0.352226667,10.54656,65.56113512
412,0.352477222,10.54054667,68.91063175
413,0.352858889,10.53138667,72.24166242
414,0.353222222,10.52266667,78.99104947
415,0.353470278,10.51671333,77.65137823
416,0.353721111,10.51069333,75.8214342
417,0.353969444,10.50473333,75.75619736
418,0.354218889,10.49874667,76.02035156
419,0.354598056,10.48964667,76.08189463
420,0.354963611,10.48087333,74.23830929
421,0.355214722,10.47484667,75.60402107
422,0.355464167,10.46886,74.3571137
423,0.355712778,10.46289333,73.84163988
424,0.355963056,10.45688667,77.89569768
425,0.356338056,10.44788667,81.50959977
426,0.356695,10.43932,83.05646514
427,0.356943611,10.43335333,88.52368999
428,0.357193889,10.42734667,85.16119101
429,0.357442778,10.42137333,80.5498645
430,0.357688611,10.41547333,75.01808539
431,0.35806,10.40656,69.32869013
432,0.358419444,10.39793333,68.10600626
433,0.358668611,10.39195333,66.50703922
434,0.358917222,10.38598667,60.66061315
435,0.359164722,10.38004667,55.07042654
436,0.359416111,10.37401333,50.74959409
437,0.359793611,10.36495333,47.16071351
438,0.360150833,10.35638,48.40474629
439,0.360398611,10.35043333,52.9122282
440,0.360645833,10.3445,55.55943393
441,0.360895278,10.33851333,55.34272679
442,0.361142222,10.33258667,53.4928051
443,0.361517778,10.32357333,51.05931674
444,0.361880278,10.31487333,49.01464033
445,0.362126389,10.30896667,43.33052719
446,0.362373333,10.30304,39.53401612
447,0.3626225,10.29706,44.53144884
448,0.362869167,10.29114,44.98367276
449,0.363253056,10.28192667,45.56319425
450,0.363619444,10.27313333,44.93442802
451,0.363869167,10.26714,44.98276574
452,0.364121944,10.26107333,42.11031064
453,0.364369722,10.25512667,34.06007437
454,0.36462,10.24912,31.29959464
455,0.365004444,10.23989333,28.48054377
456,0.365366389,10.23120667,25.04022616
457,0.365616944,10.22519333,24.95525822
458,0.365864444,10.21925333,20.84529011
459,0.366115833,10.21322,22.91559443
460,0.366363611,10.20727333,21.51690639
461,0.366741389,10.201345,19.95821842
462,0.367103611,10.207865,18.49733981
463,0.367353056,10.212355,15.71250751
464,0.3676025,10.216845,13.3036036
465,0.367849444,10.22129,10.67092965
466,0.368098611,10.225775,11.2264043
467,0.368480556,10.23265,11.69707947
468,0.368842222,10.23916,10.38979158
469,0.369091111,10.24364,10.89684238
470,0.369340278,10.248125,11.8246916
471,0.369589722,10.252615,11.25178729
472,0.369840278,10.257125,13.93817878
473,0.370225,10.26405,16.60505054
474,0.370593056,10.270675,17.7825199
475,0.370841667,10.27515,18.31791183
476,0.371090833,10.279635,19.09827921
477,0.371338611,10.284095,19.58846798
478,0.371586667,10.28856,23.70172531
479,0.371962778,10.29533,27.81448348
480,0.372322778,10.30181,31.63388029
481,0.372569444,10.30625,32.23100734
482,0.372818889,10.31074,29.43934993
483,0.373067222,10.31521,31.73357081
484,0.373320556,10.31977,36.20539776
485,0.373704444,10.32668,39.92293242
486,0.374068333,10.33323,42.10740707
487,0.374321111,10.33778,36.42978364
488,0.37457,10.34226,35.53184509
489,0.37482,10.34676,36.39590543
490,0.375071667,10.35129,38.30120442
491,0.375454167,10.358175,40.81204183
492,0.375816944,10.364705,43.18568671
493,0.376063611,10.369145,42.98262724
494,0.376310556,10.37359,39.83663514
495,0.376558333,10.37805,43.47740501
496,0.376814722,10.382665,41.0725947
497,0.377197778,10.38956,39.46319739
498,0.377565,10.39617,36.47906822
499,0.377811667,10.40061,34.60101825
500,0.378061944,10.405115,35.88020199
501,0.378311389,10.409605,35.79346512
502,0.378559167,10.414065,38.13073975
503,0.378941111,10.42094,40.06163667
504,0.379305833,10.427505,39.59016646
505,0.379553889,10.43197,40.76991851
506,0.379799722,10.436395,42.7016048
507,0.380046944,10.440845,40.7187203
508,0.380296389,10.445335,43.36163134
509,0.3806725,10.452105,45.47038931
510,0.3810325,10.458585,46.62363973
511,0.381284167,10.463115,46.42668862
512,0.381535833,10.467645,47.33280793
513,0.3817875,10.472175,50.81711016
514,0.382039444,10.47671,50.6797555
515,0.382420833,10.483575,51.27574574
516,0.382783056,10.490095,53.73333879
517,0.383028333,10.49451,54.91026423
