Meas,Time,Temperature,Vmax
1,0.500644722,9.603868333,16.10091637
2,0.500895,9.60537,18.14948109
3,0.501143056,9.606858333,17.05721771
4,0.501388333,9.60833,15.31683964
5,0.501633056,9.609798333,18.2510892
6,0.502013889,9.612083333,21.42778402
7,0.502375,9.61425,24.23572894
8,0.502622778,9.615736667,29.70241676
9,0.502875,9.61725,35.14308961
10,0.503125556,9.618753333,33.67470651
11,0.503374722,9.620248333,32.38641197
12,0.503753889,9.622523333,31.15862479
13,0.504116944,9.624701667,25.88106957
14,0.504364444,9.626186667,25.86103524
15,0.504610278,9.627661667,27.14437805
16,0.504857778,9.629146667,25.25845133
17,0.505105556,9.630633333,25.02007509
18,0.505481667,9.63289,25.00493002
19,0.505842778,9.635056667,21.6265157
20,0.506091389,9.636548333,18.65533535
21,0.5063425,9.638055,15.12314389
22,0.506596389,9.639578333,15.95240457
23,0.50685,9.6411,15.54785305
24,0.507235,9.64341,14.72273633
25,0.507600833,9.645605,16.58676012
26,0.5078475,9.647085,15.03289854
27,0.508095,9.64857,13.18309216
28,0.508345556,9.650073333,13.95465854
29,0.508600278,9.651601667,14.60992098
30,0.508968056,9.653808333,15.09156874
31,0.509319444,9.655916667,19.13707412
32,0.509568056,9.657408333,20.37023392
33,0.509822222,9.658933333,19.19231646
34,0.510079167,9.660475,18.79883053
35,0.5103275,9.661965,19.63232473
36,0.510691944,9.664151667,20.64258567
37,0.511044722,9.666268333,22.74629878
38,0.511298889,9.667793333,25.27111736
39,0.511551944,9.669311667,19.74411763
40,0.511798611,9.670791667,17.37554638
41,0.512048889,9.672293333,16.65172432
42,0.51241,9.67446,15.90749011
43,0.512760833,9.676565,15.70508214
44,0.513008333,9.67805,14.59760269
45,0.513258611,9.679551667,13.23626581
46,0.51351,9.68106,10.24423745
47,0.513763056,9.682578333,12.33500833
48,0.514128333,9.68477,14.61403473
49,0.5144775,9.686865,12.19077208
50,0.514724167,9.688345,7.51395029
51,0.514971667,9.68983,7.68382464
52,0.515221389,9.691328333,9.155365302
53,0.515471667,9.69283,10.5879586
54,0.5158575,9.695145,11.74305871
55,0.51623,9.69738,11.98695437
56,0.516483333,9.6989,13.15488869
57,0.516735556,9.700413333,15.87471349
58,0.516985833,9.701915,16.34852743
59,0.517237222,9.703423333,15.97987289
60,0.517604167,9.705625,15.39285863
61,0.517954444,9.707726667,14.68367632
62,0.518203611,9.709221667,19.77833509
63,0.518453056,9.710718333,21.47601128
64,0.518699167,9.712195,20.79297368
65,0.518946111,9.713676667,25.40571404
66,0.519329722,9.715978333,30.26775994
67,0.519693056,9.718158333,29.72922585
68,0.519940833,9.719645,31.29462786
69,0.520192778,9.721156667,32.35883533
70,0.520441667,9.72265,30.43352376
71,0.520688333,9.72413,32.19388173
72,0.521053611,9.726321667,33.49849681
73,0.5214075,9.728445,33.82606166
74,0.521656111,9.729936667,33.8439686
75,0.521902778,9.731416667,37.46442124
76,0.522151111,9.732906667,36.89872207
77,0.522404444,9.734426667,40.05295974
78,0.522794444,9.736766667,43.22423672
79,0.523162778,9.738976667,42.63144824
80,0.523413056,9.740478333,41.44734237
81,0.523663333,9.74198,37.45328358
82,0.523913889,9.743483333,38.09659838
83,0.524163333,9.74498,36.0199519
84,0.524536389,9.747218333,34.06713339
85,0.524893333,9.74936,32.13858904
86,0.525142778,9.750856667,32.20564536
87,0.525391389,9.752348333,31.18660292
88,0.525642778,9.753856667,33.79336941
89,0.525893611,9.755361667,34.2018167
90,0.526281389,9.757688333,35.16734701
91,0.526648889,9.759893333,35.81152635
92,0.526896111,9.761376667,42.90084743
93,0.5271475,9.762885,44.09176069
94,0.5274,9.7644,42.05453423
95,0.527648056,9.765888333,42.09095402
96,0.528017222,9.768103333,41.49349029
97,0.528376389,9.770258333,39.65107265
98,0.528623056,9.771738333,36.64181063
99,0.528872778,9.773236667,36.93405663
100,0.529124722,9.774748333,37.1929071
101,0.529376111,9.776256667,38.15621339
102,0.529765278,9.778591667,39.30698974
103,0.530133889,9.780803333,35.82459259
104,0.530383889,9.782303333,32.56983617
105,0.5306325,9.783795,31.54254773
106,0.530881944,9.785291667,33.20856398
107,0.5311325,9.786795,34.62405577
108,0.531501667,9.78901,36.44295314
109,0.531853056,9.791118333,37.72097708
110,0.532103611,9.792621667,33.71341897
111,0.5323575,9.794145,31.1738509
112,0.532609167,9.795655,31.57840275
113,0.532859444,9.797156667,31.76574843
114,0.533235556,9.799413333,31.58365457
115,0.533591944,9.806206667,27.21160001
116,0.53384,9.81216,24.39885526
117,0.534091389,9.818193333,26.82907554
118,0.534338889,9.824133333,25.06517281
119,0.534588056,9.830113333,22.17727576
120,0.534976389,9.839433333,19.23192862
121,0.535345833,9.8483,17.94933188
122,0.535596944,9.854326667,18.79859247
123,0.535848889,9.860373333,20.28524194
124,0.536102222,9.866453333,13.42087448
125,0.536354444,9.872506667,14.59151924
126,0.5367125,9.8811,15.91030056
127,0.537059722,9.889433333,16.0098571
128,0.537310278,9.895446667,13.08693301
129,0.537560556,9.901453333,15.26740714
130,0.537807222,9.907373333,13.95429937
131,0.538055556,9.913333333,13.16564493
132,0.538414167,9.92194,11.94575199
133,0.538761944,9.930286667,12.6980962
134,0.5390125,9.9363,16.55163535
135,0.539264722,9.942353333,13.39225985
136,0.539510556,9.948253333,8.89855647
137,0.539760278,9.954246667,8.986974352
138,0.540150833,9.96362,9.584907892
139,0.540518611,9.972446667,7.913086783
140,0.540766111,9.978386667,10.34023506
141,0.541016111,9.984386667,6.766379734
142,0.541266944,9.990406667,8.610484674
143,0.541520833,9.9965,9.941734085
144,0.541902778,10.00566667,10.80180694
145,0.542265556,10.01437333,13.50181789
146,0.542511389,10.02027333,14.35421647
147,0.542764167,10.02634,13.64302467
148,0.543011944,10.03228667,16.82157696
149,0.543262222,10.03829333,19.67316321
150,0.543629444,10.04710667,22.65016913
151,0.543980556,10.05553333,24.48779188
152,0.544229167,10.0615,24.36329432
153,0.544480556,10.06753333,24.11258087
154,0.544730833,10.07354,22.42819425
155,0.544979167,10.0795,19.86710845
156,0.545356667,10.08856,16.84655476
157,0.545712222,10.09709333,16.85722803
158,0.545964167,10.10314,16.9193306
159,0.546211944,10.10908667,12.56867013
160,0.546459444,10.11502667,9.977162665
161,0.546712778,10.12110667,11.12785496
162,0.547083611,10.13000667,12.81643271
163,0.547443889,10.13865333,9.060221713
164,0.547693889,10.14465333,9.791837069
165,0.547944444,10.15066667,8.034534796
166,0.548193611,10.15664667,8.391508625
167,0.548445278,10.16268667,12.15014045
168,0.548813611,10.17152667,16.18485453
169,0.549168056,10.18003333,14.46597041
170,0.549419167,10.18606,10.98883497
171,0.549668611,10.19204667,8.205449411
172,0.549919167,10.19806,5.535835019
173,0.550171111,10.19897333,6.805250441
174,0.550573056,10.19656167,7.638898186
175,0.550948056,10.19431167,7.914508771
176,0.551195278,10.19282833,5.776299185
177,0.551442222,10.19134667,9.578660843
178,0.55169,10.18986,11.93681491
179,0.551938333,10.18837,10.49119698
180,0.552306667,10.18616,9.015140124
181,0.552665833,10.184005,6.807783561
182,0.552916111,10.18250333,8.980414737
183,0.553165556,10.18100667,8.394810565
184,0.553415833,10.179505,12.65239009
185,0.553668333,10.17799,17.63871162
186,0.554045556,10.17572667,22.49653715
187,0.554403611,10.17357833,23.32838083
188,0.554651111,10.17209333,24.42905961
189,0.554900556,10.17059667,28.17529808
190,0.555150278,10.16909833,28.18037773
191,0.555401111,10.16759333,23.92483246
192,0.555780556,10.16531667,20.00374094
193,0.556143611,10.16313833,16.35476026
194,0.556396667,10.16162,12.47894664
195,0.556650556,10.16009667,14.17715616
196,0.5569,10.1586,16.44178489
197,0.55715,10.1571,19.27578756
198,0.557523333,10.15486,22.06497085
199,0.557876944,10.15273833,21.36226986
200,0.558126111,10.15124333,22.86757058
201,0.558373889,10.14975667,18.0913999
202,0.558626111,10.14824333,22.17031624
203,0.558875278,10.14674833,22.29968771
204,0.559245556,10.14452667,21.88522653
205,0.5595975,10.142415,18.81468124
206,0.559846944,10.14091833,17.88540143
207,0.560096944,10.13941833,17.62571318
208,0.560344444,10.13793333,18.92401258
209,0.5605925,10.136445,19.28980127
210,0.560991944,10.13404833,20.112488
211,0.561366389,10.13180167,20.44033227
212,0.561618333,10.13029,22.1504164
213,0.561869167,10.128785,18.89405894
214,0.562120833,10.127275,16.20729731
215,0.562376667,10.12574,18.91861037
216,0.562756111,10.12346333,21.53742438
217,0.563113611,10.12131833,23.33785668
218,0.563360278,10.11983833,23.67701922
219,0.563608611,10.11834833,23.38886256
220,0.563858333,10.11685,24.97869891
221,0.564105833,10.115365,26.82472244
222,0.564471111,10.11317333,28.78666144
223,0.564823056,10.11106167,26.10267289
224,0.56507,10.10958,22.68575699
225,0.565317222,10.10809667,21.96212395
226,0.565563889,10.10661667,22.58884966
227,0.565815278,10.10510833,23.01830065
228,0.566204444,10.10277333,23.62482734
229,0.566571111,10.10057333,21.85364542
230,0.566816111,10.10358667,18.68273659
231,0.5670625,10.1095,16.95383291
232,0.567314722,10.11555333,19.42088098
233,0.567565833,10.12158,22.49500304
234,0.567948889,10.13077333,25.48925701
235,0.568315278,10.13956667,22.73731567
236,0.568562778,10.14550667,26.01671579
237,0.5688125,10.1515,28.88588298
238,0.569065833,10.15758,30.11197651
239,0.569316667,10.1636,30.25445486
240,0.569701389,10.17283333,30.3517224
241,0.570065,10.18156,30.85983763
242,0.570315833,10.18758,34.44296523
243,0.570565833,10.19358,37.64463065
244,0.570815556,10.19957333,34.69591803
245,0.57106,10.20544,31.70724905
246,0.571429444,10.21430667,28.55318756
247,0.571789167,10.22294,26.94322365
248,0.572036111,10.22886667,22.13488904
249,0.57229,10.23496,22.47825074
250,0.572542222,10.24101333,21.80767952
251,0.572795556,10.24709333,22.75502716
252,0.57316,10.25584,23.40646304
253,0.573510278,10.26424667,21.86783018
254,0.5737575,10.27018,27.04192957
255,0.574005833,10.27614,25.79221317
256,0.574253889,10.28209333,23.66253957
257,0.574502222,10.28805333,22.84861369
258,0.574871667,10.29692,21.76683512
259,0.5752225,10.30534,21.36101319
260,0.575470556,10.31129333,22.04974187
261,0.575721944,10.31732667,20.26022198
262,0.575976111,10.32342667,19.70926382
263,0.576228611,10.32948667,15.34173858
264,0.576592778,10.33822667,11.31810786
265,0.576945,10.34668,14.4076174
266,0.577197778,10.35274667,17.82157828
267,0.577449722,10.35879333,18.06895929
268,0.577696944,10.36472667,16.4721948
269,0.577949722,10.37079333,19.07181631
270,0.578322778,10.37974667,21.68177461
271,0.578673611,10.38816667,19.00926723
272,0.578918611,10.39404667,22.07440716
273,0.579167778,10.40002667,25.02681221
274,0.579413611,10.40592667,23.80696605
275,0.579662222,10.41189333,23.40048008
276,0.580035833,10.42086,22.65892995
277,0.5803925,10.42942,20.69670591
278,0.580645278,10.43548667,20.56147576
279,0.580898611,10.44156667,17.64206945
280,0.581148056,10.44755333,15.4716878
281,0.581399167,10.45358,14.55181134
282,0.581780278,10.46272667,13.63175809
283,0.582142778,10.47142667,9.879625154
284,0.582393056,10.47743333,12.35337901
285,0.582645833,10.4835,9.239537244
286,0.5828975,10.48954,9.148313445
287,0.583148056,10.49555333,13.99388131
288,0.583531944,10.49404167,19.36484309
289,0.583891667,10.48325,19.42759432
290,0.584135,10.47595,18.2926374
291,0.584383611,10.46849167,13.98836772
292,0.584634167,10.460975,15.46687961
293,0.584886111,10.45341667,16.7794962
294,0.585253611,10.44239167,17.84528931
295,0.5856025,10.431925,16.64099047
296,0.58585,10.4245,13.65611263
297,0.586100556,10.41698333,14.72718209
298,0.586349722,10.40950833,12.28099288
299,0.586601111,10.40196667,10.61428525
300,0.586983056,10.39050833,8.758690786
301,0.587345833,10.379625,3.686394052
302,0.587594444,10.37216667,6.617636286
303,0.587844444,10.36466667,8.113539966
304,0.588095,10.35715,11.07990423
305,0.588350278,10.34949167,13.29014586
306,0.588714722,10.33855833,15.97676763
307,0.589060833,10.328175,19.27409516
308,0.589309444,10.32071667,22.99597813
309,0.589560556,10.31318333,26.65690722
310,0.589810278,10.30569167,26.25273922
311,0.590061389,10.29815833,25.68002189
312,0.590443333,10.2867,24.87571073
313,0.590805278,10.27584167,20.20182462
314,0.591057222,10.26828333,14.29016582
315,0.591306944,10.26079167,13.41743356
316,0.591556389,10.25330833,16.49975627
317,0.591806667,10.2458,17.99500958
318,0.592198056,10.23405833,20.20529857
319,0.592566667,10.223,19.11960752
320,0.592816389,10.21550833,22.82082493
321,0.593068889,10.20793333,17.97725276
322,0.593318889,10.20043333,19.29391158
323,0.593568333,10.19295,18.4954176
324,0.593959444,10.18121667,16.9189557
325,0.594327778,10.17016667,14.33129046
326,0.594578056,10.16265833,12.18812699
327,0.594824722,10.15525833,12.03575887
328,0.5950725,10.147825,14.35901085
329,0.595321944,10.14034167,14.10080853
330,0.595703611,10.12889167,13.68518438
331,0.596062778,10.11811667,12.42479116
332,0.5963125,10.110625,11.47099871
333,0.596563611,10.10309167,6.956753076
334,0.596812222,10.09563333,1.64427226
335,0.597058889,10.08823333,5.962406068
336,0.597424444,10.07726667,10.21935235
337,0.597777222,10.06668333,11.52568235
338,0.598024167,10.059275,15.08261736
339,0.598274167,10.051775,13.92098
340,0.598522778,10.04431667,14.2603825
341,0.598775833,10.036725,13.32099457
342,0.599156944,10.02529167,12.5532279
343,0.599521389,10.01435833,8.667544683
344,0.599769722,10.00690833,2.812785824
345,0.600017778,10.00053333,0.437279463
346,0.60027,10.0081,-0.87302144
347,0.600519167,10.015575,-2.370205701
348,0.600883889,10.02651667,-3.718075578
349,0.60124,10.0372,-8.574467619
350,0.601488611,10.04465833,-8.567372323
351,0.601743611,10.05230833,-8.930872977
352,0.601996944,10.05990833,-6.767148335
353,0.602247778,10.06743333,-7.031051974
354,0.602630833,10.078925,-7.11934073
355,0.602995278,10.08985833,-10.39061494
356,0.603245,10.09735,-13.61301688
357,0.603498333,10.10495,-13.85214618
358,0.603745833,10.112375,-13.61137766
359,0.603997778,10.11993333,-10.5385297
360,0.604368611,10.13105833,-7.384666107
361,0.604724167,10.141725,-3.811217922
362,0.604974444,10.14923333,0.908647746
363,0.605230833,10.156925,4.067199232
364,0.605483611,10.16450833,3.270615663
365,0.605734722,10.17204167,-0.468401149
366,0.606112222,10.18336667,-4.747683369
367,0.606477778,10.19433333,-7.245930736
368,0.606728056,10.20184167,-9.533971156
369,0.606979444,10.20938333,-6.111798485
370,0.607231389,10.21694167,-5.365375858
371,0.607480278,10.22440833,-3.81778578
372,0.607851944,10.23555833,-2.006194706
373,0.608210278,10.24630833,-7.428994091
374,0.608461667,10.25385,-2.991755908
375,0.608712778,10.26138333,-0.181568094
376,0.608960556,10.26881667,1.450731854
377,0.609211111,10.27633333,2.229961333
378,0.609582778,10.28748333,2.865897976
379,0.609939167,10.298175,4.260354975
380,0.610184167,10.305525,2.64734119
381,0.610434444,10.31303333,2.974157658
382,0.610688333,10.32065,-1.368977664
383,0.6109425,10.328275,-8.294064844
384,0.611316667,10.3395,-15.15657736
385,0.611676944,10.35030833,-13.11334484
386,0.611924444,10.35773333,-10.19517006
387,0.612174167,10.365225,-9.682434463
388,0.612425556,10.37276667,-7.602082543
389,0.612673889,10.38021667,-4.921787494
390,0.613054167,10.391625,-2.121618183
391,0.613414722,10.40244167,-6.460844873
392,0.613660833,10.409825,-5.757580126
393,0.613912222,10.41736667,-5.504915861
394,0.614161389,10.42484167,-6.655249402
395,0.614407222,10.43221667,-4.663111908
396,0.614766667,10.443,-2.559411812
397,0.615118889,10.45356667,-3.009431372
398,0.615367778,10.46103333,-3.497688293
399,0.615617222,10.46851667,-6.093511805
400,0.615867222,10.47601667,-7.465445884
401,0.616115,10.48345,-8.911457186
402,0.616473333,10.4942,-10.6276231
403,0.6168225,10.502805,-8.650400993
404,0.617073611,10.507325,-8.510373919
405,0.617326667,10.51188,-8.725730027
406,0.617574444,10.51634,-7.96211625
407,0.617824722,10.520845,-9.388998877
408,0.618200833,10.527615,-10.90593555
409,0.618561944,10.534115,-9.323662745
410,0.6188125,10.538625,-10.52193975
411,0.619061667,10.54311,-12.9034248
412,0.619311389,10.547605,-9.064580751
413,0.619561667,10.55211,-9.266624031
414,0.619915556,10.55848,-8.887888801
415,0.62026,10.56468,-12.9625246
416,0.620515,10.56927,-15.39547225
417,0.620767222,10.57381,-15.56819736
418,0.621016389,10.578295,-17.58213418
419,0.621269167,10.582845,-14.60794428
420,0.621636111,10.58945,-12.01835693
421,0.621985833,10.595745,-14.80109032
422,0.622231667,10.60017,-10.9636586
423,0.622481944,10.604675,-6.918089723
424,0.622733333,10.6092,-4.226726111
425,0.622984444,10.61372,-6.398897598
426,0.623362778,10.62053,-7.764524528
427,0.62372,10.62696,-7.956045072
428,0.623970556,10.63147,-4.187960306
429,0.624220833,10.635975,-4.932417502
430,0.624468333,10.64043,-4.65181741
431,0.624716111,10.64489,0.13972859
432,0.625086111,10.65155,3.652782022
433,0.625441667,10.65795,2.208423362
434,0.625693611,10.662485,0.29666094
435,0.625943889,10.66699,1.065202322
436,0.626191667,10.67145,3.490773563
437,0.626439444,10.67591,5.105433339
438,0.626814722,10.682665,7.880398587
439,0.627168889,10.68904,7.295457971
440,0.627415278,10.693475,10.03570203
441,0.627663889,10.69795,12.5983807
442,0.627910278,10.702385,16.10826475
443,0.628156389,10.706815,17.84435476
444,0.628534722,10.713625,19.38594762
445,0.628895278,10.720115,21.22536373
446,0.629145,10.72461,19.69315459
447,0.629392778,10.72907,20.76405522
448,0.629641389,10.733545,24.16417672
449,0.629894167,10.738095,25.36299017
450,0.630268056,10.744825,25.99839469
451,0.630621389,10.751185,27.10621284
452,0.630871944,10.755695,25.63472686
453,0.631121389,10.760185,25.69362852
454,0.6313725,10.764705,23.69065709
455,0.631625833,10.769265,26.41230144
456,0.632011389,10.776205,29.0683901
457,0.632379722,10.782835,25.47279095
458,0.632626667,10.78728,27.03897233
459,0.632874167,10.791735,28.46960712
460,0.633120833,10.796175,29.72265904
461,0.633369444,10.79956667,29.94231411
462,0.633763056,10.79484333,30.23496212
463,0.634132222,10.79041333,25.72021936
464,0.63438,10.78744,21.40609287
465,0.634631111,10.78442667,19.43736207
466,0.634883333,10.7814,17.87007192
467,0.6351325,10.77841,18.73425526
468,0.635508333,10.7739,19.79765368
469,0.635868333,10.76958,21.81618132
470,0.636120556,10.76655333,26.5147915
471,0.636371667,10.76354,32.37184128
472,0.636620278,10.76055667,32.27262767
473,0.6368725,10.75753,33.79856398
474,0.637247222,10.75303333,35.25056159
475,0.637608333,10.7487,33.06697819
476,0.637859444,10.74568667,31.50044251
477,0.638108889,10.74269333,31.31411569
478,0.638358333,10.7397,29.7110731
479,0.638611389,10.73666333,31.32202105
480,0.638988611,10.73213667,32.8164448
481,0.639348056,10.72782333,35.60422527
482,0.639594722,10.72486333,35.81544766
483,0.639844167,10.72187,38.11591825
484,0.640095556,10.71885333,35.87856822
485,0.640348611,10.71581667,29.40401348
486,0.640726944,10.71127667,22.93112992
487,0.641083889,10.70699333,19.5215431
488,0.641334444,10.70398667,17.28795843
489,0.641585556,10.70097333,17.61419226
490,0.641834167,10.69799,19.28381399
491,0.642086667,10.69496,18.97217297
492,0.642472778,10.69032667,18.71813509
493,0.642841111,10.68590667,14.48373867
494,0.643090556,10.68291333,12.44093909
495,0.6433375,10.67995,13.34275521
496,0.643587778,10.67694667,11.57446775
497,0.643836389,10.67396333,8.658802259
498,0.644201667,10.66958,6.052686458
499,0.644552778,10.66536667,4.263401226
500,0.644798056,10.66242333,2.924576863
501,0.645046944,10.65943667,0.568990278
502,0.645296389,10.65644333,-2.372266994
503,0.645547778,10.65342667,-8.922225224
504,0.645923889,10.64891333,-15.6768885
505,0.646283056,10.64460333,-11.83588869
506,0.646530556,10.64163333,-8.378806546
507,0.646778333,10.63866,-7.854559982
508,0.647026944,10.63567667,-4.837555616
