Meas,Time,Temperature,Vmax
1,0.333812222,9.70862,28.43522267
2,0.334175833,9.715165,28.85773246
3,0.334423611,9.719625,30.52163142
4,0.334670278,9.724065,36.14697442
5,0.334920556,9.72857,36.94647706
6,0.335173611,9.733125,35.50254893
7,0.335561111,9.7401,33.65340248
8,0.335922778,9.74661,32.61437126
9,0.336173333,9.75112,36.79239477
10,0.336428056,9.755705,33.15803911
11,0.336681111,9.76026,31.97364173
12,0.336932778,9.76479,28.52836135
13,0.337314444,9.77166,25.18361889
14,0.33768,9.77824,21.81234553
15,0.337927778,9.7827,18.43210458
16,0.338176111,9.78717,16.26639177
17,0.338422778,9.79161,11.56165147
18,0.338674444,9.79614,10.43995255
19,0.33906,9.80308,10.69734601
20,0.339429722,9.809735,10.1319554
21,0.339681944,9.814275,6.622975394
22,0.3399325,9.818785,4.220433286
23,0.340182778,9.82329,1.424849509
24,0.340433333,9.8278,3.561847029
25,0.340820556,9.83477,4.750710391
26,0.341186944,9.841365,1.123874504
27,0.341439167,9.845905,2.728650847
28,0.341691111,9.85044,7.082263695
29,0.341938889,9.8549,10.9684456
30,0.342188611,9.859395,6.893050124
31,0.34256,9.86608,3.608568709
32,0.342915556,9.87248,5.698724031
33,0.343166111,9.87699,8.713032229
34,0.343419167,9.881545,8.652837422
35,0.343666944,9.886005,7.183138721
36,0.343916111,9.89049,7.929187345
37,0.344291111,9.89724,8.579846477
38,0.344648056,9.903665,6.554726246
39,0.344896111,9.90813,4.490493945
40,0.345147222,9.91265,2.300536201
41,0.345395,9.91711,-0.296677727
42,0.345646111,9.92163,0.266636686
43,0.346030556,9.92855,1.342453634
44,0.346393333,9.93508,2.730885915
45,0.346641111,9.93954,3.745219395
46,0.346888611,9.943995,5.598523738
47,0.347137222,9.94847,7.397257914
48,0.347389444,9.95301,8.623729555
49,0.347774167,9.959935,10.01812639
50,0.348133889,9.96641,9.340092805
51,0.348382778,9.97089,10.47030602
52,0.348634722,9.975425,10.23092282
53,0.348885833,9.979945,13.21934788
54,0.3491375,9.984475,12.83776772
55,0.349515833,9.991285,12.16339296
56,0.349880556,9.99785,12.22698262
57,0.350129444,10.00388333,14.7040195
58,0.350378333,10.01135,13.87348406
59,0.350630278,10.01890833,16.35715121
60,0.350885556,10.02656667,16.02018686
61,0.351277222,10.03831667,15.85958346
62,0.351643056,10.04929167,14.11840593
63,0.351890278,10.05670833,14.29295156
64,0.352140833,10.064225,14.46913712
65,0.352391389,10.07174167,13.74315781
66,0.352643611,10.07930833,14.38255511
67,0.353019167,10.090575,16.03785166
68,0.353380833,10.101425,19.25990232
69,0.353632778,10.10898333,22.20052816
70,0.353883611,10.11650833,21.41572606
71,0.354134722,10.12404167,23.13369746
72,0.354383056,10.13149167,23.71954409
73,0.354765,10.14295,23.86514647
74,0.355130556,10.15391667,17.84511849
75,0.355379444,10.16138333,18.28641803
76,0.355626667,10.1688,13.42139925
77,0.355877778,10.17633333,0.795746093
78,0.35613,10.1839,0.343088794
79,0.356510278,10.19530833,2.24156427
80,0.356869444,10.20608333,9.589715721
81,0.357121667,10.21365,9.270467246
82,0.357371111,10.22113333,11.89410095
83,0.357617778,10.22853333,9.593152106
84,0.357868056,10.23604167,11.43879344
85,0.358251111,10.24753333,13.35526128
86,0.358615,10.25845,17.92017612
87,0.358860833,10.265825,17.34464544
88,0.359114444,10.27343333,15.37132879
89,0.359363889,10.28091667,17.6797287
90,0.359614444,10.28843333,20.48713406
91,0.359999167,10.299975,22.48003622
92,0.360361667,10.31085,24.81893682
93,0.360609722,10.31829167,26.75998595
94,0.360859167,10.325775,28.86610788
95,0.3611075,10.333225,31.04299693
96,0.361356111,10.34068333,32.09081735
97,0.361726111,10.35178333,32.35083991
98,0.362079722,10.36239167,34.57163664
99,0.362327222,10.36981667,33.30183007
100,0.362577778,10.37733333,28.99383668
101,0.362828889,10.38486667,24.58776581
102,0.363078333,10.39235,27.36130916
103,0.3634575,10.403725,31.28254796
104,0.363816667,10.4145,32.39833487
105,0.364063333,10.4219,36.23538056
106,0.364313611,10.42940833,37.71916373
107,0.364559444,10.43678333,36.2378531
108,0.364807222,10.44421667,37.96956829
109,0.365178333,10.45535,39.91033876
110,0.365532778,10.46598333,44.14752216
111,0.365780278,10.47340833,43.1825856
112,0.366028889,10.48086667,47.55587795
113,0.3662775,10.488325,46.01905429
114,0.366524722,10.49574167,44.24768513
115,0.366894167,10.498635,42.42763328
116,0.3672525,10.496485,37.97094365
117,0.3675,10.495,37.10432568
118,0.3677475,10.493515,36.06579462
119,0.367996389,10.49202167,36.68441377
120,0.368245833,10.490525,36.93341322
121,0.368621389,10.48827167,39.04984245
122,0.368978611,10.48612833,41.91005669
123,0.369227778,10.48463333,44.291545
124,0.369476111,10.48314333,47.38031133
125,0.369724167,10.481655,48.50816045
126,0.369977778,10.48013333,50.82592884
127,0.370351944,10.47788833,51.42657207
128,0.370710833,10.475735,47.00205295
129,0.370959444,10.47424333,49.8795741
130,0.371206111,10.47276333,50.32360333
131,0.371452778,10.47128333,53.31817888
132,0.371701389,10.46979167,50.4979756
133,0.372078056,10.46753167,48.2952126
134,0.372440556,10.46535667,46.17264967
135,0.372687222,10.46387667,42.65828525
136,0.372935,10.46239,41.09148914
137,0.373186944,10.46087833,39.02623701
138,0.373438333,10.45937,38.0625632
139,0.373822778,10.45706333,38.59486236
140,0.374185556,10.45488667,41.35382867
141,0.374434444,10.45339333,41.34882763
142,0.374682778,10.45190333,40.33592157
143,0.3749325,10.450405,41.07358746
144,0.375180833,10.448915,40.25431096
145,0.375562222,10.44662667,38.42120462
146,0.375925556,10.44444667,36.20823653
147,0.376174167,10.442955,36.29637131
148,0.376421111,10.44147333,40.52897237
149,0.376670278,10.43997833,41.09826164
150,0.3769225,10.438465,38.6181451
151,0.3773025,10.436185,36.59157203
152,0.3776625,10.434025,36.85580359
153,0.377915,10.43251,33.99072922
154,0.378168056,10.43099167,28.91836241
155,0.378419167,10.429485,28.0193983
156,0.378664722,10.42801167,25.38936563
157,0.379040556,10.42575667,23.72028266
158,0.379401389,10.42359167,17.28512576
159,0.379649167,10.422105,11.61066684
160,0.379899444,10.42060333,8.010930037
161,0.380145556,10.41912667,6.903967871
162,0.380395556,10.41762667,7.558279424
163,0.380781111,10.41531333,7.48621016
164,0.381150278,10.41309833,5.465359882
165,0.381401389,10.41159167,2.576861818
166,0.381653056,10.41008167,1.81737271
167,0.381906944,10.40855833,2.438532334
168,0.382157222,10.40705667,6.81027451
169,0.382542778,10.40474333,11.68036563
170,0.382906667,10.40256,9.760474978
171,0.383155,10.40107,5.451182291
172,0.383405556,10.3987,6.170584152
173,0.383655,10.39421,10.89256988
174,0.383905,10.38971,12.19240084
175,0.384285556,10.38286,14.1837532
176,0.384653056,10.376245,17.49383275
177,0.384907778,10.37166,17.08948117
178,0.385159167,10.367135,15.07996295
179,0.385407778,10.36266,16.86540045
180,0.385656111,10.35819,17.87583407
181,0.386038611,10.351305,18.10102165
182,0.386406111,10.34469,17.578787
183,0.386654722,10.340215,18.28229006
184,0.386901389,10.335775,21.46940773
185,0.38715,10.3313,20.88459141
186,0.387399444,10.32681,19.99247348
187,0.387786944,10.319835,18.92754734
188,0.388150556,10.31329,22.86228169
189,0.388396389,10.308865,21.06117243
190,0.388648611,10.304325,17.48847428
191,0.388900833,10.299785,21.88975298
192,0.389151944,10.295265,17.66921243
193,0.389535833,10.288355,14.42498741
194,0.3899025,10.281755,11.92615447
195,0.390150833,10.277285,14.03539567
196,0.390398333,10.27283,9.654615879
197,0.390645,10.26839,1.01879871
198,0.390892778,10.26393,2.780697868
199,0.391278056,10.256995,5.994699832
200,0.391639167,10.250495,8.425506699
201,0.391888611,10.246005,5.106934316
202,0.392141667,10.24145,4.421525076
203,0.392397778,10.23684,2.988314391
204,0.392650833,10.232285,2.507739218
205,0.393030833,10.225445,1.57532861
206,0.393393889,10.21891,2.277919261
207,0.393643333,10.21442,0.932193433
208,0.393891667,10.20995,-0.868211275
209,0.394140278,10.205475,-0.504099746
210,0.394391389,10.200955,-0.336289576
211,0.3947725,10.194095,0.569938586
212,0.395135,10.18757,-0.740710971
213,0.39538,10.18316,2.943757887
214,0.395626667,10.17872,-1.061552456
215,0.395874444,10.17426,-2.604323302
216,0.396123056,10.169785,-3.292877816
217,0.3965125,10.162775,-4.278684029
218,0.396882222,10.15612,-5.210070879
219,0.397133611,10.151595,-7.374866294
220,0.397383056,10.147105,-9.234682992
221,0.397633333,10.1426,-7.018229552
222,0.3978875,10.138025,-5.828870229
223,0.398273611,10.131075,-4.247585804
224,0.398639722,10.124485,-8.155860023
225,0.398890556,10.11997,-4.376103801
226,0.399140278,10.115475,0.687316713
227,0.399386944,10.111035,2.487223072
228,0.399634167,10.106585,5.485651589
229,0.400009167,10.099945,7.826008624
230,0.400371944,10.09776833,12.27611764
231,0.400625,10.09625,10.55205658
232,0.400876944,10.09473833,11.4228949
233,0.401127222,10.09323667,11.23514174
234,0.401373333,10.09176,9.046444585
235,0.401749722,10.08950167,6.44687905
236,0.402109722,10.08734167,5.689234703
237,0.402359167,10.085845,5.004552896
238,0.402608611,10.08434833,5.581286249
239,0.402855556,10.08286667,2.800867506
240,0.403105,10.08137,0.720155855
241,0.403485,10.07909,-0.019585523
242,0.403847778,10.07691333,2.59342184
243,0.404093611,10.07543833,4.196170847
244,0.404346389,10.07392167,4.40213063
245,0.404598056,10.07241167,7.389303882
246,0.4048475,10.070915,9.577308439
247,0.405233889,10.06859667,10.82326772
248,0.405605833,10.066365,10.48248898
249,0.405855,10.06487,13.04164162
250,0.406102778,10.06338333,16.34233114
251,0.406352222,10.06188667,24.08150722
252,0.4066025,10.060385,26.22430612
253,0.406985556,10.05808667,29.21568538
254,0.407346389,10.05592167,30.32890262
255,0.407595833,10.054425,31.39629567
256,0.407846389,10.05292167,36.95195332
257,0.408098611,10.05140833,40.75908413
258,0.408350833,10.049895,44.3354419
259,0.408731389,10.04761167,48.38510084
260,0.4090925,10.045445,50.69099842
261,0.409342778,10.04394333,55.51804641
262,0.409593333,10.04244,56.48986469
263,0.4098475,10.040915,59.03068816
264,0.410095,10.03943,59.0431024
265,0.410468889,10.03718667,57.5104029
266,0.410823889,10.03505667,57.97944434
267,0.411071944,10.03356833,57.32703721
268,0.411320278,10.03207833,56.38838725
269,0.411570556,10.03057667,55.30701233
270,0.411821667,10.02907,55.53702513
271,0.412198611,10.02680833,56.46823089
272,0.4125575,10.024655,57.50372773
273,0.412807778,10.02315333,53.40655982
274,0.413057222,10.02165667,46.11441815
275,0.413307778,10.02015333,45.21292555
276,0.413556944,10.01865833,43.18697289
277,0.41394,10.01636,42.45131147
278,0.414304722,10.01417167,40.87745915
279,0.414557778,10.01265333,40.31147955
280,0.414808056,10.01115167,37.2351236
281,0.415055833,10.009665,35.83347084
282,0.415303333,10.00818,38.47289781
283,0.415676944,10.00593833,39.69542954
284,0.416038056,10.00377167,35.26588231
285,0.416288333,10.00227,34.01416854
286,0.416535278,10.00078833,33.86724165
287,0.416782778,10.00209,34.66040228
288,0.417032778,10.00659,38.19717245
289,0.417408611,10.013355,42.93923601
290,0.417769444,10.01985,43.1460385
291,0.418016389,10.024295,39.69070751
292,0.418265833,10.028785,40.88172985
293,0.418518056,10.033325,41.56004706
294,0.418766667,10.0378,44.17134074
295,0.419156389,10.044815,46.60593257
296,0.4195275,10.051495,49.95217227
297,0.419779722,10.056035,46.8945235
298,0.420032222,10.06058,39.59154717
299,0.420286111,10.06515,35.94066554
300,0.420536389,10.069655,35.60325207
301,0.4209125,10.076425,34.63930821
302,0.42127,10.08286,35.17559378
303,0.421516667,10.0873,34.12603688
304,0.421765278,10.091775,37.47406592
305,0.422013056,10.096235,39.08315646
306,0.422266667,10.1008,37.74753598
307,0.422651667,10.10773,35.83127547
308,0.423014722,10.114265,38.93099403
309,0.423261944,10.118715,38.11591641
310,0.423511389,10.123205,35.51675153
311,0.423761944,10.127715,35.21775062
312,0.424015,10.13227,27.08541593
313,0.424396944,10.139145,20.17227616
314,0.424760556,10.14569,16.42286594
315,0.425006667,10.15012,16.41220907
316,0.425257778,10.15464,15.79029439
317,0.425510556,10.15919,14.98529277
318,0.425762222,10.16372,17.11992242
319,0.426143056,10.170575,20.2393133
320,0.426503889,10.17707,20.76572679
321,0.426755278,10.181595,21.56565193
322,0.427005556,10.1861,22.3388907
323,0.427259722,10.190675,23.88754584
324,0.427505556,10.1951,23.1032272
325,0.427885556,10.20194,20.44150492
326,0.428252778,10.20855,20.88871495
327,0.428503333,10.21306,21.91270249
328,0.428751667,10.21753,21.41471116
329,0.429001389,10.222025,19.68420918
330,0.429251389,10.226525,19.61200407
331,0.429628889,10.23332,21.64783987
332,0.429988333,10.23979,18.0412966
333,0.430236667,10.24426,24.80704274
334,0.430483611,10.248705,23.10651474
335,0.430733611,10.253205,23.73765401
336,0.430983889,10.25771,23.13704736
337,0.431363889,10.26455,22.15412271
338,0.431726944,10.271085,21.47104592
339,0.431978889,10.27562,20.22612012
340,0.432226111,10.28007,21.58006011
341,0.432474444,10.28454,24.6203215
342,0.432724444,10.28904,23.21251448
343,0.433105,10.29589,22.22889511
344,0.433467778,10.30161333,18.69274976
345,0.433718611,10.30462333,18.82052095
346,0.433966667,10.3076,20.37671576
347,0.434216944,10.31060333,20.3152487
348,0.434466111,10.31359333,20.4914845
349,0.434843056,10.31811667,19.87292614
350,0.435203056,10.32243667,19.69938706
351,0.435451667,10.32542,17.05883195
352,0.435701667,10.32842,16.46818062
353,0.435951944,10.33142333,15.81084762
354,0.4362025,10.33443,12.88419204
355,0.436578056,10.33893667,8.502957582
356,0.436936111,10.34323333,12.28469666
357,0.437185,10.34622,11.32373411
358,0.437433889,10.34920667,11.08681685
359,0.437681667,10.35218,10.1503763
360,0.437931389,10.35517667,5.336270464
361,0.438319722,10.35983667,0.04095
362,0.438686111,10.36423333,-0.359671092
363,0.438932778,10.36719333,-3.134016937
364,0.439183056,10.37019667,-7.595033853
365,0.439433611,10.37320333,-9.83712486
366,0.439681389,10.37617667,-14.77857761
367,0.440065556,10.38078667,-17.25069169
368,0.4404275,10.38513,-13.86855761
369,0.440673611,10.38808333,-9.531021694
370,0.440923611,10.39108333,-10.67626212
371,0.441173889,10.39408667,-10.45526182
372,0.441423333,10.39708,-10.65867257
373,0.4418,10.4016,-11.19188673
374,0.442159167,10.40591,-12.63277392
375,0.4424075,10.40889,-7.242105591
376,0.442657222,10.41188667,-0.487855297
377,0.442906667,10.41488,0.516713383
378,0.443160556,10.41792667,4.708853616
379,0.443541389,10.42249667,9.175544165
380,0.443900833,10.42681,7.684216684
381,0.444150278,10.42980333,12.74626512
382,0.444401389,10.43281667,11.66280447
383,0.444649167,10.43579,12.39932832
384,0.444899444,10.43879333,15.36774507
385,0.4452825,10.44339,17.47388405
386,0.445646944,10.44776333,20.0349043
387,0.445892778,10.45071333,19.43543982
388,0.446139722,10.45367667,16.84980009
389,0.446388611,10.45666333,18.94507413
390,0.446638333,10.45966,21.77018561
391,0.447015556,10.46418667,25.28410192
392,0.447373056,10.46847667,26.60418697
393,0.447619722,10.47143667,30.7301794
394,0.447866389,10.47439667,28.92588626
395,0.448115833,10.47739,25.847198
396,0.448368056,10.48041667,19.78469339
397,0.448745556,10.48494667,14.50475138
398,0.449105556,10.48926667,14.28312546
399,0.449356944,10.49228333,13.29161778
400,0.449605278,10.49526333,12.60974204
401,0.449854722,10.49825667,9.656387058
402,0.450103889,10.5,10.5650854
403,0.450483611,10.5,10.55023722
404,0.450848056,10.5,9.163178425
405,0.451097222,10.5,12.51968973
406,0.451345,10.5,14.03343087
407,0.451594167,10.5,13.60639695
408,0.451844722,10.5,14.07143935
409,0.452228333,10.5,15.19671519
410,0.452595833,10.5,17.76781715
411,0.452844167,10.5,18.39045708
412,0.453092778,10.5,19.31112874
413,0.453346111,10.5,20.26202364
414,0.453599167,10.5,20.79381145
415,0.453986944,10.5,20.73230459
416,0.454353056,10.5,23.73687484
417,0.454598889,10.5,23.7261113
418,0.454847222,10.5,18.72428182
419,0.455097778,10.5,18.76080929
420,0.455350556,10.5,17.50620421
421,0.455730278,10.5,15.2168354
422,0.456098056,10.5,14.34360808
423,0.456347778,10.5,12.22786672
424,0.456594444,10.5,11.71674015
425,0.456840278,10.5,12.7674498
426,0.45709,10.5,12.75887816
427,0.457473611,10.5,14.58965162
428,0.457836111,10.5,19.37187579
429,0.458084167,10.5,22.57285307
430,0.458332222,10.5,24.66579447
431,0.458580833,10.5,21.52763692
432,0.458828333,10.5,14.33224906
433,0.459210278,10.5,6.213010334
434,0.459571389,10.5,2.83228638
435,0.45982,10.5,1.951500618
436,0.460071111,10.5,-1.032890993
437,0.460322778,10.5,1.0663118
438,0.460574722,10.5,3.47955111
439,0.460955,10.5,6.967330599
440,0.461316389,10.5,7.860881704
441,0.461565278,10.5,6.553984262
442,0.461814444,10.5,4.540646916
443,0.462063333,10.5,5.015666769
444,0.462315278,10.5,3.554691269
445,0.462700833,10.5,0.572102922
446,0.463068333,10.5,0.359257801
447,0.463315833,10.5,-0.284983437
448,0.463564444,10.5,-3.171029912
449,0.463812222,10.5,-5.673054689
450,0.464061667,10.5,-5.749092192
451,0.464441667,10.5,-4.617825491
452,0.464806389,10.5,-8.646021859
453,0.465053056,10.5,-6.410802809
454,0.465301667,10.5,-4.355860149
455,0.465550278,10.5,0.136618512
456,0.465802222,10.5,0.60651413
457,0.466175833,10.5,2.529417996
458,0.466533333,10.5,3.44514334
459,0.466786389,10.50287333,6.800924501
460,0.467035,10.50884,11.30796631
461,0.467282778,10.51478667,14.00095844
462,0.467531667,10.52076,16.05501739
463,0.4679075,10.52978,17.08390929
464,0.468263611,10.53832667,18.36437923
465,0.468509444,10.54422667,19.86920454
466,0.468755278,10.55012667,23.3418683
467,0.469002778,10.55606667,21.95342577
468,0.469251389,10.56203333,22.65168168
469,0.469624444,10.57098667,23.27293627
470,0.4699825,10.57958,25.48705188
471,0.470227778,10.58546667,27.33013215
472,0.470478611,10.59148667,28.54862288
473,0.47073,10.59752,27.79935345
474,0.470975833,10.60342,28.13013861
475,0.471348056,10.61235333,27.62363817
476,0.471706667,10.62096,28.12277239
477,0.471956389,10.62695333,29.55148275
478,0.472203056,10.63287333,27.34723591
479,0.472453333,10.63888,30.74328467
480,0.472703611,10.64488667,28.95751828
481,0.473084722,10.65403333,27.52318634
482,0.473446667,10.66272,31.96360691
483,0.473696111,10.66870667,29.42518366
484,0.473945556,10.67469333,25.38735753
485,0.474194167,10.68066,21.96541377
486,0.474441389,10.68659333,21.52468399
487,0.474823333,10.69576,21.45460887
488,0.475186667,10.70448,21.82537044
489,0.475434167,10.71042,23.28805441
490,0.475684167,10.71642,21.77163655
491,0.475931389,10.72235333,17.84477514
492,0.476181389,10.72835333,12.91931416
493,0.476564444,10.73754667,7.501684587
494,0.476931667,10.74636,5.773130323
495,0.477181111,10.75234667,5.181228122
496,0.477428889,10.75829333,4.983971245
497,0.477678333,10.76428,4.084727111
498,0.477928333,10.77028,4.260425601
499,0.478309444,10.77942667,4.891964549
500,0.478673333,10.78816,0.68470227
501,0.478923333,10.79416,3.537128122
502,0.479173333,10.80016,4.867333395
503,0.479425278,10.80620667,4.840483238
504,0.479676389,10.81223333,5.982659467
505,0.480061944,10.82148667,6.542207137
506,0.4804275,10.83026,7.508580395
507,0.480678889,10.83629333,10.60201567
508,0.480928611,10.84228667,11.29288909
509,0.481183056,10.84839333,16.24088018
510,0.481432778,10.85438667,22.30947466
511,0.481816389,10.86359333,29.37353181
512,0.482180278,10.87232667,29.54719457
513,0.482425833,10.87822,36.46727178
514,0.482675556,10.88421333,39.55650819
515,0.482926667,10.89024,39.1759253
516,0.483175278,10.89620667,36.21956201
517,0.483563611,10.895855,34.12632809
518,0.483930833,10.889245,32.37666895
519,0.484185,10.88467,31.72174991
520,0.484438333,10.88011,36.93375955
521,0.484689167,10.875595,36.0720142
522,0.484939722,10.871085,35.1790037
523,0.485325278,10.864145,32.44479584
