Meas,Time,Temperature,Vmax
207,0.410058056,9.979303333,136.4442275
208,0.410417778,9.974986667,138.0913648
209,0.410667222,9.971993333,137.3385049
210,0.410917778,9.968986667,132.9251936
211,0.411168056,9.965983333,131.9128652
212,0.411420278,9.962956667,128.9540653
213,0.411793056,9.958483333,126.1137417
214,0.412153056,9.954163333,122.7894988
215,0.412404167,9.95115,119.2750409
216,0.412652778,9.948166667,118.1049086
217,0.412903889,9.945153333,117.9697903
218,0.413151944,9.942176667,121.9190384
219,0.41353,9.93764,125.4107134
220,0.413889167,9.93333,126.0429201
221,0.414136111,9.930366667,127.360323
222,0.414386389,9.927363333,122.5013608
223,0.414637222,9.924353333,117.6934534
224,0.414889444,9.921326667,111.8561961
225,0.41527,9.91676,106.0455751
226,0.415640556,9.912313333,109.4454233
227,0.415887222,9.909353333,112.922657
228,0.416134444,9.906386667,113.6277999
229,0.416381111,9.903426667,112.0578465
230,0.416636111,9.900366667,110.1008672
231,0.417008611,9.902051667,107.6981345
232,0.417363333,9.90418,104.8764835
233,0.41761,9.90566,98.98647563
234,0.417861944,9.907171667,95.09041707
235,0.418111389,9.908668333,91.63245832
236,0.418362222,9.910173333,91.06553963
237,0.418734444,9.912406667,90.87802756
238,0.419090278,9.914541667,87.88652025
239,0.419341389,9.916048333,90.44434073
240,0.419589167,9.917535,92.73399953
241,0.419836667,9.91902,94.73564645
242,0.420088889,9.920533333,100.0364719
243,0.420468333,9.92281,104.9779154
244,0.4208325,9.924995,103.3309863
245,0.421082222,9.926493333,102.3686122
246,0.421331667,9.92799,102.665568
247,0.421582222,9.929493333,104.2177191
248,0.421831111,9.930986667,107.8947587
249,0.422205,9.93323,111.4824412
250,0.422563611,9.935381667,114.2958531
251,0.422814722,9.936888333,118.2613778
252,0.423066667,9.9384,120.931742
253,0.423318333,9.93991,121.7147067
254,0.423567222,9.941403333,120.735723
255,0.423947778,9.943686667,120.0798379
256,0.424311389,9.945868333,123.7685647
257,0.4245625,9.947375,124.6899067
258,0.424811389,9.948868333,127.2158389
259,0.425059722,9.950358333,130.9187477
260,0.425311111,9.951866667,131.9125186
261,0.425685833,9.954115,132.4967688
262,0.426045556,9.956273333,133.206121
263,0.426294444,9.957766667,134.3153482
264,0.42654,9.95924,136.5486832
265,0.426785833,9.960715,133.4123345
266,0.427040833,9.962245,134.5799908
267,0.427427222,9.964563333,135.4586141
268,0.4277925,9.966755,136.1265173
269,0.428039444,9.968236667,132.6009533
270,0.42829,9.96974,131.1573095
271,0.428543056,9.971258333,131.2345598
272,0.428793889,9.972763333,130.030919
273,0.429174444,9.975046667,129.0910007
274,0.429533333,9.9772,126.3387425
275,0.429781944,9.978691667,127.2163136
276,0.430032222,9.980193333,131.3265441
277,0.43028,9.98168,131.3159818
278,0.430527778,9.983166667,128.8273169
279,0.430898333,9.98539,125.9443426
280,0.431253889,9.987523333,125.3358452
281,0.4315025,9.989015,123.682962
282,0.431748333,9.99049,122.9263579
283,0.431995278,9.991971667,121.8041027
284,0.432248056,9.993488333,124.1643581
285,0.432625278,9.995751667,126.7748262
286,0.432983611,9.997901667,126.9855842
287,0.433231944,9.999391667,124.149333
288,0.433478611,10.00087167,122.7040856
289,0.433729167,10.002375,123.8919275
290,0.433980278,10.00388167,124.3515724
291,0.43436,10.00616,124.8500249
292,0.434724444,10.00834667,124.5806593
293,0.434974722,10.00984833,123.397844
294,0.435228611,10.01137167,121.6222574
295,0.435476944,10.01286167,119.5591489
296,0.435723056,10.01433833,119.8933366
297,0.436098611,10.01659167,119.8158992
298,0.436460556,10.01876333,121.3238888
299,0.436710556,10.02026333,121.2500954
300,0.436963889,10.02178333,122.2334855
301,0.437213056,10.02327833,124.9885042
302,0.437465833,10.024795,125.489606
303,0.437835556,10.02701333,125.8299439
304,0.438192778,10.02915667,127.2218501
305,0.438443889,10.03066333,124.2991622
306,0.438691944,10.03215167,121.9606766
307,0.438941389,10.03364833,119.8650854
308,0.439189722,10.03513833,114.1773423
309,0.439561389,10.03736833,108.6118525
310,0.439916944,10.03950167,105.7069634
311,0.440163056,10.04097833,101.870688
312,0.4404125,10.042475,98.43759372
313,0.440665556,10.04399333,97.29548056
314,0.440917778,10.04550667,97.26805269
315,0.441289444,10.04773667,97.187525
316,0.441646944,10.04988167,94.68537984
317,0.441894722,10.05136833,92.94526761
318,0.442146389,10.05287833,88.11962435
319,0.442395278,10.05437167,88.16983619
320,0.442643611,10.05586167,84.41367317
321,0.443019444,10.05811667,80.55766149
322,0.443380833,10.060285,78.5255072
323,0.443626111,10.06175667,79.70003562
324,0.443878056,10.06326833,79.19190046
325,0.444130278,10.06478167,83.56535529
326,0.444376944,10.06626167,88.20562279
327,0.4447525,10.068515,92.15047824
328,0.445111667,10.07067,94.26905951
329,0.445358333,10.07215,94.1198328
330,0.445606944,10.07364167,93.088721
331,0.445856667,10.07514,92.92632129
332,0.446108611,10.07665167,93.4255601
333,0.446488889,10.07893333,94.0989718
334,0.446848056,10.08108833,93.35239029
335,0.447096111,10.08257667,93.55444071
336,0.447343056,10.08405833,92.48935348
337,0.447591667,10.08555,94.59856501
338,0.447842778,10.08705667,99.31573304
339,0.448225,10.08935,104.3220114
340,0.448587778,10.09152667,107.4800089
341,0.448837222,10.09302333,108.2770546
342,0.449086667,10.09452,109.0914995
343,0.449335833,10.096015,109.6993968
344,0.449585556,10.09751333,109.3624222
345,0.449959167,10.099755,108.4623096
346,0.450318333,10.09618,114.1535472
347,0.4505675,10.09319,118.3218931
348,0.450818056,10.09018333,121.0824273
349,0.451071389,10.08714333,123.6931402
350,0.451323333,10.08412,120.5841161
351,0.451701944,10.07957667,116.9535251
352,0.452063611,10.07523667,115.4209106
353,0.452313056,10.07224333,111.6069973
354,0.452568611,10.06917667,107.7470029
355,0.452821111,10.06614667,107.0533108
356,0.453069444,10.06316667,108.0801004
357,0.453450833,10.05859,109.5988759
358,0.453816111,10.05420667,108.9469595
359,0.454065556,10.05121333,109.2218069
360,0.454317778,10.04818667,111.427962
361,0.454571667,10.04514,110.524487
362,0.454820556,10.04215333,113.3156341
363,0.455201389,10.03758333,116.20306
364,0.455563889,10.03323333,116.137162
365,0.455811667,10.03026,116.3745964
366,0.456061944,10.02725667,117.6601908
367,0.4563125,10.02425,119.7581844
368,0.456561111,10.02126667,122.4255639
369,0.456940278,10.01671667,124.03447
370,0.457305,10.01234,122.7990045
371,0.457556111,10.00932667,122.0438439
372,0.457805556,10.00633333,118.6921977
373,0.458055556,10.00333333,121.1586969
374,0.458307222,10.00031333,120.1252778
375,0.458681667,9.99582,119.7394619
376,0.459041667,9.9915,122.1698563
377,0.45929,9.98852,125.6050334
378,0.459540556,9.985513333,127.1456413
379,0.459791111,9.982506667,128.6911911
380,0.460039722,9.979523333,128.1355341
381,0.460415833,9.97501,127.1917671
382,0.460776667,9.97068,126.5701471
383,0.461025556,9.967693333,124.2863616
384,0.461275,9.9647,124.9512376
385,0.461526111,9.961686667,123.8371365
386,0.4617775,9.95867,123.9583548
387,0.462159722,9.954083333,123.9359236
388,0.462524722,9.949703333,124.2877508
389,0.4627725,9.94673,120.4710097
390,0.463019167,9.94377,122.0459222
391,0.463266111,9.940806667,122.4230481
392,0.463515556,9.937813333,120.9933473
393,0.4638975,9.93323,119.8010177
394,0.464258611,9.928896667,117.3109116
395,0.464508611,9.925896667,116.2942643
396,0.464759167,9.92289,114.3628601
397,0.465011111,9.919866667,112.1872043
398,0.465264444,9.916826667,112.2613132
399,0.465645278,9.912256667,111.7241791
400,0.466006389,9.907923333,108.1077428
401,0.466254722,9.904943333,107.3730969
402,0.466504444,9.901946667,106.8660105
403,0.466754444,9.90158,108.3602801
404,0.467004722,9.906085,106.8572287
405,0.467391389,9.913045,105.7946502
406,0.467757778,9.91964,106.5532391
407,0.468008056,9.924145,103.9052005
408,0.468256944,9.928625,102.6165257
409,0.468507222,9.93313,101.2763381
410,0.468759444,9.93767,106.240454
411,0.469140556,9.94453,111.8054473
412,0.469504167,9.951075,111.7578701
413,0.469755556,9.9556,110.8191103
414,0.470005833,9.960105,111.6650191
415,0.470254444,9.96458,110.1291107
416,0.470502222,9.96904,112.3785021
417,0.470882778,9.97589,113.9028297
418,0.471247778,9.98246,115.5518857
419,0.471495833,9.986925,114.3107747
420,0.471744722,9.991405,113.5905569
421,0.471994167,9.995895,116.0083039
422,0.4722425,10.000365,116.1306646
423,0.472615556,10.00708,116.1898933
424,0.472971944,10.013495,118.3065116
425,0.473218611,10.017935,116.0080911
426,0.473468056,10.022425,117.2348296
427,0.473715833,10.026885,117.0911674
428,0.473964722,10.031365,113.7467836
429,0.474338056,10.038085,109.7267513
430,0.474701389,10.044625,109.012922
431,0.474954722,10.049185,108.5300362
432,0.475209444,10.05377,107.6395716
433,0.47546,10.05828,108.8357338
434,0.475709167,10.062765,107.0227251
435,0.476085,10.06953,105.7145098
436,0.476447778,10.07606,101.3958996
437,0.476698056,10.080565,100.2848975
438,0.476941944,10.084955,97.20104743
439,0.477192222,10.08946,97.352685
440,0.477441667,10.09395,91.66243258
441,0.477814444,10.10066,85.88948167
442,0.478174722,10.107145,81.38084082
443,0.478425833,10.111665,79.11918222
444,0.478672778,10.11611,76.76589981
445,0.478920278,10.120565,76.48534054
446,0.479168611,10.125035,79.92066388
447,0.479547222,10.13185,83.35078466
448,0.479910833,10.138395,85.18870171
449,0.480159444,10.14287,87.62415686
450,0.480406944,10.147325,91.58010086
451,0.480654444,10.15178,95.53195637
452,0.480906667,10.15632,97.29789238
453,0.4812825,10.163085,98.21892077
454,0.481638611,10.169495,97.59522667
455,0.481884444,10.17392,98.74833128
456,0.482131944,10.178375,99.21542322
457,0.482381389,10.182865,99.30060342
458,0.482631111,10.18736,100.7883296
459,0.483002222,10.19404,102.654384
460,0.483360833,10.20066,104.6267539
461,0.483605,10.20652,103.0745756
462,0.483855278,10.21252667,106.3855916
463,0.484108333,10.2186,110.7603777
464,0.48436,10.22464,112.5004988
465,0.484734444,10.23362667,113.7877135
466,0.485095,10.24228,114.5687914
467,0.485346389,10.24831333,115.9257145
468,0.485597778,10.25434667,117.7306319
469,0.485848889,10.26037333,122.9516467
470,0.486096667,10.26632,120.3999957
471,0.486473889,10.27537333,117.9622735
472,0.4868375,10.2841,119.5701032
473,0.487086389,10.29007333,118.1602912
474,0.487335,10.29604,118.9048051
475,0.487583333,10.302,118.4177948
476,0.487834722,10.30803333,122.6488507
477,0.488213889,10.31713333,126.4912051
478,0.488573611,10.32576667,128.9484883
479,0.488820556,10.33169333,130.6537823
480,0.489073889,10.33777333,131.6805081
481,0.489326944,10.34384667,128.1907772
482,0.489578889,10.34989333,129.187285
483,0.489948333,10.35876,130.6860817
484,0.490307222,10.36737333,132.6801154
485,0.490555833,10.37334,134.4659258
486,0.490805278,10.37932667,133.465372
487,0.491052222,10.38525333,136.6830851
488,0.491297778,10.39114667,140.2017039
489,0.491671389,10.40011333,142.9220361
490,0.49203,10.40872,141.4418395
491,0.492277222,10.41465333,141.7878621
492,0.492526944,10.42064667,139.4048937
493,0.492778889,10.42669333,136.6419043
494,0.493029167,10.4327,137.0348511
495,0.493401944,10.44164667,137.3264634
496,0.493758611,10.45020667,136.1917516
497,0.494005278,10.45612667,137.7105512
498,0.494251111,10.46202667,135.6759214
499,0.494499722,10.46799333,133.8677544
500,0.494751944,10.47404667,132.186127
501,0.495126111,10.48302667,130.046654
502,0.495483889,10.49161333,128.4596154
503,0.495735556,10.49765333,124.9247404
504,0.495986944,10.50368667,122.9967564
505,0.496238333,10.50972,119.0696412
506,0.496486944,10.51568667,117.1840575
507,0.496862778,10.52470667,115.696511
508,0.497223611,10.53336667,114.0051476
509,0.497468611,10.53924667,110.3031398
510,0.497716944,10.54520667,109.4205943
511,0.497967222,10.55121333,107.8772163
512,0.498213611,10.55712667,106.2751287
513,0.498591389,10.56619333,105.1606281
514,0.498947778,10.57474667,105.2284274
515,0.499194167,10.58066,106.2387732
516,0.499445556,10.58669333,102.8455326
517,0.4996925,10.59262,100.0941312
518,0.49995,10.5988,101.118905
519,0.500333889,10.59399,101.2008988
520,0.5006975,10.587445,98.00049575
521,0.500948056,10.582935,97.53310531
522,0.501198056,10.578435,98.75704138
523,0.501446667,10.57396,101.3950969
524,0.501698056,10.569435,103.3981817
525,0.502073333,10.56268,105.4324791
526,0.5024325,10.556215,103.4408452
527,0.502681111,10.55174,100.9288756
528,0.502931667,10.54723,100.8692238
529,0.503178333,10.54279,101.0758637
530,0.5034275,10.538305,103.2556674
531,0.503809444,10.53143,106.1482714
532,0.504173333,10.52488,104.0788151
533,0.504421944,10.520405,102.8713779
534,0.504671389,10.515915,105.2559821
535,0.504923611,10.511375,101.2664257
536,0.505174167,10.506865,99.72957605
537,0.505556667,10.49998,97.92270589
538,0.505923056,10.493385,98.00063302
539,0.506173333,10.48888,97.01291951
540,0.506425,10.48435,96.60269917
541,0.506676389,10.479825,97.47472515
542,0.506928333,10.47529,97.24705294
543,0.507308333,10.46845,97.1967815
544,0.507671944,10.461905,98.3096141
545,0.507917778,10.45748,97.84941065
546,0.508163611,10.453055,99.03357322
547,0.508413333,10.44856,102.3472689
548,0.508662778,10.44407,100.4708421
549,0.509039167,10.437295,97.76636631
550,0.509398056,10.430835,99.17583693
551,0.509646389,10.426365,104.0088683
552,0.509896944,10.421855,105.0431457
553,0.510145833,10.417375,105.6360883
554,0.510397778,10.41284,103.4732035
555,0.510778611,10.405985,101.6004486
556,0.511141667,10.39945,100.7810131
557,0.511393611,10.394915,98.6454343
558,0.511642222,10.39044,97.18415127
559,0.511894444,10.3859,97.62316882
560,0.512143056,10.381425,92.94923154
561,0.512516944,10.374695,88.46421194
562,0.512873333,10.36828,84.34064045
563,0.513123333,10.36378,81.71811444
564,0.513376389,10.359225,78.97839897
565,0.513625278,10.354745,77.77021895
566,0.513875278,10.350245,80.49530539
567,0.514251111,10.34348,82.5433486
568,0.514611944,10.336985,82.38041801
569,0.514861111,10.3325,82.20213392
570,0.515108333,10.32805,87.13318407
571,0.515357778,10.32356,88.31836231
572,0.515606389,10.319085,87.42925033
573,0.515986389,10.312245,85.68554314
574,0.516346111,10.30577,83.38783568
575,0.516594444,10.3013,83.88085746
576,0.516844167,10.301065,80.47965836
577,0.517090278,10.30254167,77.95260358
578,0.517342222,10.30405333,76.00551364
579,0.517727778,10.30636667,74.76457784
580,0.518090278,10.30854167,72.27890984
581,0.518335556,10.31001333,69.90767858
582,0.518579167,10.311475,69.97833326
583,0.518823333,10.31294,71.11430873
584,0.51907,10.31442,70.63071807
585,0.519450278,10.31670167,69.72710321
586,0.519814167,10.318885,69.84588068
587,0.520065833,10.320395,71.88640095
588,0.520316389,10.32189833,72.70635765
589,0.520563333,10.32338,74.10476314
590,0.520813611,10.32488167,71.47308344
591,0.521197222,10.32718333,69.17327693
592,0.5215575,10.329345,69.67327828
593,0.521806944,10.33084167,67.80233351
594,0.522056111,10.33233667,68.22722878
595,0.522306667,10.33384,64.97385431
596,0.522554167,10.335325,68.74532612
597,0.522931667,10.33759,72.36502013
598,0.523291667,10.33975,77.32013343
599,0.523541944,10.34125167,78.45603619
600,0.523792222,10.34275333,76.11141306
601,0.524043333,10.34426,72.142254
602,0.524291944,10.34575167,74.05015386
603,0.524669444,10.34801667,76.07361372
604,0.5250325,10.350195,78.55016822
605,0.525281944,10.35169167,79.05475979
606,0.525531111,10.35318667,75.42627034
607,0.525777778,10.35466667,78.44038196
608,0.526031944,10.35619167,81.43953422
609,0.526411111,10.35846667,84.1164073
610,0.526771944,10.36063167,84.75219339
611,0.527021389,10.36212833,89.71358119
612,0.527273611,10.36364167,92.18419186
613,0.527522222,10.36513333,87.98080745
614,0.527767222,10.36660333,91.80048154
615,0.528142778,10.36885667,95.05955238
616,0.528503333,10.37102,95.7210453
617,0.528752222,10.37251333,95.38276705
618,0.5290025,10.374015,94.27030193
619,0.529251111,10.37550667,90.95826426
620,0.529497778,10.37698667,89.73417631
621,0.529874167,10.379245,88.49219423
622,0.530236944,10.38142167,90.44506449
623,0.530484722,10.38290833,89.12482929
624,0.530734167,10.384405,89.3406332
625,0.530983333,10.3859,88.52684196
626,0.531229167,10.387375,89.23918217
627,0.531613056,10.38967833,89.78210898
628,0.5319775,10.391865,87.63417094
629,0.532224167,10.393345,87.01360009
630,0.532471944,10.39483167,85.86988917
631,0.532719722,10.39631833,81.99120789
632,0.532970833,10.397825,80.49468484
633,0.533345556,10.40014667,79.46549719
634,0.533707222,10.40448667,80.66405901
635,0.533955833,10.40747,81.03042109
636,0.5342025,10.41043,80.19087014
637,0.534449167,10.41339,81.18712089
638,0.534696944,10.41636333,79.72367455
639,0.535068889,10.42082667,78.02108045
640,0.535427778,10.42513333,76.77310708
641,0.535674444,10.42809333,75.35569145
642,0.535921389,10.43105667,77.16828175
643,0.536167222,10.43400667,81.0629733
644,0.536415556,10.43698667,88.56380461
645,0.536785,10.44142,95.94830831
646,0.537138333,10.44566,95.68958476
647,0.537387222,10.44864667,97.35005816
648,0.537637222,10.45164667,99.32538893
649,0.537883333,10.4546,100.3229043
650,0.538131667,10.45758,101.8256796
651,0.538508056,10.46209667,103.0771984
652,0.538866389,10.46639667,102.3266785
653,0.539119167,10.46943,103.0007005
654,0.5393725,10.47247,102.1700562
655,0.539624444,10.47549333,100.4862059
656,0.539876111,10.47851333,99.30812129
657,0.540256111,10.48307333,98.71407828
658,0.540616389,10.48739667,97.84237079
659,0.540862778,10.49035333,99.12332262
660,0.541113333,10.49336,101.4640873
661,0.5413625,10.49635,101.979875
662,0.541613056,10.49935667,102.9115438
663,0.541995278,10.50394333,103.893991
664,0.542362222,10.50834667,105.7746713
665,0.542610556,10.51132667,104.4087449
666,0.542855833,10.51427,103.3466027
667,0.5431025,10.51723,106.3104751
668,0.543352778,10.52023333,109.9568992
669,0.543721944,10.52466333,113.0315204
670,0.544080278,10.52896333,114.9814995
671,0.544333056,10.53199667,117.1856935
672,0.544582778,10.53499333,117.8607485
673,0.544831111,10.53797333,119.1942456
674,0.545080556,10.54096667,122.7622848
675,0.5454525,10.54543,125.8784007
676,0.545811667,10.54974,126.2630419
677,0.54606,10.55272,125.0018232
678,0.546311667,10.55574,122.3947214
679,0.546564444,10.55877333,125.5803156
680,0.546816667,10.5618,120.2821585
681,0.547198611,10.56638333,115.5660096
682,0.547558889,10.57070667,112.0023064
683,0.547808333,10.5737,112.5821421
684,0.548054167,10.57665,111.3146464
685,0.5483025,10.57963,114.1509433
686,0.548551944,10.58262333,118.8989159
687,0.548929444,10.58715333,122.793716
688,0.549289444,10.59147333,125.2079403
689,0.549535833,10.59443,122.3488315
690,0.549785278,10.59742333,123.9965897
691,0.550035,10.6,123.9342433
692,0.550285556,10.6,125.1295453
693,0.550667222,10.6,126.0904465
694,0.551028056,10.6,127.6657049
695,0.551275556,10.6,128.4157383
696,0.551523611,10.6,126.0120476
697,0.551773056,10.6,126.9491215
698,0.552022222,10.6,123.4583656
699,0.55239,10.6,120.3365571
700,0.552747778,10.6,115.1966318
701,0.552998333,10.6,113.6499284
702,0.553246944,10.6,111.1614336
703,0.553497222,10.6,108.2754983
704,0.5537475,10.6,107.6773656
705,0.554129444,10.6,106.5340264
706,0.554486944,10.6,105.9189522
707,0.554735278,10.6,108.3520211
708,0.554984722,10.6,108.5247143
709,0.555234167,10.6,106.412296
710,0.555484444,10.6,102.4538622
711,0.5558675,10.6,98.46827712
712,0.556231389,10.6,94.45098329
713,0.556478889,10.6,90.98827037
714,0.556730278,10.6,91.09485744
715,0.556981389,10.6,89.22116146
716,0.55723,10.6,90.29537966
717,0.557618889,10.6,91.76460786
718,0.557986667,10.6,96.1675315
719,0.558238611,10.6,95.77182939
720,0.558489167,10.6,93.12263613
