Meas,Time,Temperature,Vmax.og,Vmax.inst
1,0,9.40237,283.1948817,283.1948817
2,0.000252222,9.403883333,281.3155961,281.3155961
3,0.000505,9.4054,275.8440802,275.8440802
4,0.000751389,9.406878333,274.4009945,274.4009945
5,0.000999722,9.408368333,270.0154819,270.0154819
6,0.001400833,9.410775,265.829452,265.829452
7,0.001777222,9.413033333,266.0442369,266.0442369
8,0.002029167,9.414545,263.8507976,263.8507976
9,0.002278889,9.416043333,263.7644641,263.7644642
10,0.002528611,9.417541667,264.5792137,264.5792138
11,0.002778611,9.419041667,266.8288921,266.8288922
12,0.003164167,9.421355,268.0829582,268.0829583
13,0.003526944,9.423531667,269.122725,269.1227251
14,0.003776389,9.425028333,262.0531754,262.0531755
15,0.004023333,9.42651,256.1124219,256.112422
16,0.004272778,9.428006667,255.3290638,255.3290639
17,0.004526389,9.429528333,254.3471141,254.3471142
18,0.004919722,9.431888333,253.2837004,253.2837005
19,0.005294167,9.434135,254.6083903,254.6083904
20,0.005541944,9.435621667,249.3385079,249.338508
21,0.005791944,9.437121667,247.7462714,247.7462715
22,0.006043611,9.438631667,246.3318524,246.3318525
23,0.006295,9.44014,241.5610972,241.5610973
24,0.006679722,9.442448333,237.9712528,237.9712529
25,0.007046667,9.44465,242.35404,242.3540401
26,0.007297222,9.446153333,244.4289063,244.4289065
27,0.007546667,9.44765,242.5161354,242.5161356
28,0.007798889,9.449163333,241.0810707,241.0810709
29,0.008050833,9.450675,238.449845,238.4498452
30,0.008448333,9.45306,235.2437632,235.2437634
31,0.008823056,9.455308333,232.7555528,232.755553
32,0.009074444,9.456816667,236.2538517,236.2538519
33,0.0093275,9.458335,235.4081691,235.4081693
34,0.009579722,9.459848333,238.2577724,238.2577726
35,0.009831667,9.46136,232.3928039,232.3928041
36,0.0102275,9.463735,225.0843763,225.0843765
37,0.010603056,9.465988333,227.5882883,227.5882885
38,0.010850556,9.467473333,224.9836085,224.9836087
39,0.011100278,9.468971667,222.4387217,222.4387219
40,0.0113525,9.470485,222.0744928,222.074493
41,0.011603611,9.471991667,216.8448088,216.844809
42,0.012004722,9.474398333,213.3725192,213.3725194
43,0.012385,9.47668,211.9406571,211.9406573
44,0.012634444,9.478176667,209.837271,209.8372712
45,0.012884444,9.479676667,211.7734038,211.773404
46,0.013136944,9.481191667,212.5979457,212.5979459
47,0.013390833,9.482715,212.5101006,212.5101008
48,0.013788056,9.485098333,210.532259,210.5322592
49,0.014165556,9.487363333,205.6362373,205.6362376
50,0.014413611,9.488851667,205.9754337,205.975434
51,0.014665556,9.490363333,203.6263738,203.6263741
52,0.014915833,9.491865,201.6139065,201.6139068
53,0.015164444,9.493356667,200.9465852,200.9465855
54,0.015551944,9.495681667,201.4675274,201.4675277
55,0.015921111,9.497896667,196.7976295,196.7976298
56,0.016167778,9.499376667,192.3215785,192.3215788
57,0.016414167,9.5,191.3378107,191.337811
58,0.016663889,9.5,196.9818686,196.9818689
59,0.016914444,9.5,202.4642854,202.4642857
60,0.017311111,9.5,206.3275851,206.3275854
61,0.017689167,9.5,209.8627414,209.8627417
62,0.017940556,9.5,209.3251415,209.3251418
63,0.018191667,9.5,211.8413954,211.8413957
64,0.018439444,9.5,211.474283,211.4742833
65,0.01869,9.5,206.0579209,206.0579212
66,0.0191025,9.5,200.3248852,200.3248855
67,0.019483889,9.5,210.4249274,210.4249278
68,0.019727778,9.5,211.4128492,211.4128496
69,0.019976389,9.5,205.2915907,205.2915911
70,0.020225,9.5,204.3143714,204.3143718
71,0.020475278,9.5,197.6111321,197.6111325
72,0.020867222,9.5,192.7395031,192.7395035
73,0.021237222,9.5,194.407325,194.4073254
74,0.0214875,9.5,197.6324064,197.6324068
75,0.021738889,9.5,199.8731932,199.8731936
76,0.021988056,9.5,199.0006563,199.0006567
77,0.022239722,9.5,204.1029929,204.1029933
78,0.022647778,9.5,207.3431302,207.3431306
79,0.023028056,9.5,204.3541228,204.3541232
80,0.023278611,9.5,208.955629,208.9556294
81,0.023530833,9.5,209.1658284,209.1658288
82,0.023783889,9.5,209.9498857,209.9498861
83,0.024038611,9.5,212.4079884,212.4079889
84,0.024416389,9.5,215.1006087,215.1006092
85,0.024774167,9.5,216.757967,216.7579675
86,0.025022778,9.5,218.9489657,218.9489662
87,0.025271667,9.5,220.5528299,220.5528304
88,0.025523611,9.5,221.4306711,221.4306716
89,0.025775833,9.5,226.7181899,226.7181904
90,0.026178611,9.5,231.9054068,231.9054073
91,0.026556111,9.5,229.0173159,229.0173164
92,0.026806389,9.5,233.2226078,233.2226084
93,0.027055,9.5,237.2613955,237.2613961
94,0.027304444,9.5,235.6048982,235.6048988
95,0.027557778,9.5,230.8842741,230.8842747
96,0.027950278,9.5,226.5540733,226.5540739
97,0.028320278,9.5,231.2338011,231.2338017
98,0.028570278,9.5,229.9419794,229.94198
99,0.028823889,9.5,232.048351,232.0483516
100,0.029073333,9.5,236.8747289,236.8747295
101,0.029320833,9.5,239.8684272,239.8684278
102,0.029724167,9.5,242.9084663,242.9084669
103,0.0301025,9.5,250.1835541,250.1835548
104,0.030354444,9.5,254.989595,254.9895957
105,0.030608611,9.5,256.2089921,256.2089928
106,0.030860833,9.5,256.4705258,256.4705265
107,0.0311075,9.5,260.7848028,260.7848035
108,0.031483056,9.5,262.6995886,262.6995893
109,0.031841944,9.5,260.4721564,260.4721571
110,0.032092778,9.5,257.8676746,257.8676753
111,0.032343611,9.5,257.6419877,257.6419884
112,0.032591389,9.5,256.8607616,256.8607623
113,0.032841667,9.5,253.4401051,253.4401058
114,0.033234444,9.5,249.2698875,249.2698882
115,0.033606667,9.5,247.1961397,247.1961404
116,0.033853333,9.5,244.7794115,244.7794122
117,0.034103611,9.5,248.0440843,248.0440851
118,0.034352778,9.5,245.5204059,245.5204067
119,0.034605556,9.5,244.8950372,244.895038
120,0.035005556,9.5,245.6351103,245.6351111
121,0.035381111,9.5,242.9840513,242.9840521
122,0.035629722,9.5,248.0417333,248.0417341
123,0.035879167,9.5,255.2681925,255.2681933
124,0.036135,9.5,254.9691962,254.969197
125,0.036386111,9.5,255.3655087,255.3655095
126,0.036793056,9.5,254.4362971,254.4362979
127,0.037175556,9.5,253.4934053,253.4934061
128,0.037425,9.5,252.5510646,252.5510654
129,0.037673889,9.5,249.3300156,249.3300164
130,0.037922222,9.5,247.7149313,247.7149321
131,0.038170556,9.5,245.6126289,245.6126297
132,0.038560556,9.5,243.6201637,243.6201645
133,0.038930833,9.5,246.7822668,246.7822677
134,0.039185833,9.5,242.0624609,242.0624617
135,0.039438333,9.5,239.5035165,239.5035173
136,0.039689444,9.5,240.6435178,240.6435187
137,0.0399425,9.5,236.3509597,236.3509605
138,0.040342778,9.5,232.6264609,232.6264617
139,0.040721111,9.5,230.5117319,230.5117327
140,0.040972222,9.5,227.5843403,227.5843411
141,0.041224444,9.5,226.6491842,226.649185
142,0.041476389,9.5,230.1608452,230.1608461
143,0.041726111,9.5,222.5084346,222.5084354
144,0.042117778,9.5,214.5871546,214.5871554
145,0.042487222,9.5,209.8425903,209.8425911
146,0.042733056,9.5,206.7513165,206.7513173
147,0.042983056,9.5,208.504745,208.5047458
148,0.043235556,9.5,208.6756758,208.6756766
149,0.043489444,9.5,203.422161,203.4221618
150,0.043884444,9.5,198.369482,198.3694828
151,0.044257222,9.5,192.9438637,192.9438645
152,0.0445075,9.5,191.7196161,191.7196169
153,0.044758889,9.5,192.9439839,192.9439847
154,0.045007222,9.5,186.3431551,186.3431559
155,0.045255,9.5,180.9627925,180.9627932
156,0.045650556,9.5,175.0576484,175.0576491
157,0.046024167,9.5,178.6559796,178.6559803
158,0.04627,9.5,182.6401278,182.6401286
159,0.046517778,9.5,184.180669,184.1806698
160,0.046766111,9.5,185.8317019,185.8317027
161,0.0470175,9.5,185.3574422,185.357443
162,0.047413889,9.5,185.4873675,185.4873683
163,0.047786944,9.5,188.6547675,188.6547683
164,0.048035278,9.5,188.5416878,188.5416886
165,0.048284167,9.5,186.5567024,186.5567032
166,0.048537222,9.5,184.0724957,184.0724965
167,0.048788056,9.5,183.6658375,183.6658383
168,0.049196667,9.5,180.7766064,180.7766072
169,0.049579722,9.5,171.7176623,171.7176631
170,0.049825556,9.498676667,169.7857751,169.7857759
171,0.050075556,9.497176667,169.0505009,169.0505017
172,0.050326944,9.495668333,170.223717,170.2237178
173,0.050575833,9.494175,170.3403823,170.3403831
174,0.050982222,9.491736667,171.4215964,171.4215972
175,0.051360556,9.489466667,167.9180915,167.9180923
176,0.05161,9.48797,168.5499978,168.5499986
177,0.051863056,9.486451667,166.2036966,166.2036974
178,0.052111944,9.484958333,166.1523663,166.1523671
179,0.052363611,9.483448333,169.5154183,169.5154191
180,0.052766667,9.48103,172.3037936,172.3037944
181,0.053141389,9.478781667,173.9548578,173.9548586
182,0.053393611,9.477268333,173.1219057,173.1219065
183,0.053646944,9.475748333,177.4424885,177.4424894
184,0.053898056,9.474241667,174.6408521,174.640853
185,0.054149167,9.472735,171.1653193,171.1653201
186,0.054546944,9.470348333,166.9429063,166.9429071
187,0.054922222,9.468096667,170.0418041,170.0418049
188,0.055173333,9.46659,168.0453746,168.0453754
189,0.055422778,9.465093333,166.7454517,166.7454525
190,0.055671667,9.4636,171.6315002,171.6315011
191,0.055921111,9.462103333,169.6562355,169.6562364
192,0.056338889,9.459596667,168.6819262,168.6819271
193,0.056728889,9.457256667,171.9899892,171.9899901
194,0.056979167,9.455755,172.844062,172.8440629
195,0.057227778,9.454263333,173.7986044,173.7986053
196,0.057474167,9.452785,172.9565899,172.9565908
197,0.057731389,9.451241667,175.3494257,175.3494266
198,0.058113056,9.448951667,176.8767317,176.8767326
199,0.058473056,9.446791667,174.617857,174.6178579
200,0.058719722,9.445311667,179.4295077,179.4295087
201,0.058971944,9.443798333,175.9049779,175.9049788
202,0.059222222,9.442296667,173.0218391,173.02184
203,0.059476389,9.440771667,174.2037079,174.2037088
204,0.059849444,9.438533333,175.7281376,175.7281386
205,0.060206667,9.43639,174.2016023,174.2016033
206,0.060457778,9.434883333,177.1750638,177.1750648
207,0.060708333,9.43338,178.836654,178.836655
208,0.060956667,9.43189,176.1648402,176.1648412
209,0.0612125,9.430355,179.7453998,179.7454008
210,0.061616389,9.427931667,183.5554529,183.5554539
211,0.061996389,9.425651667,180.2436405,180.2436415
212,0.062250278,9.424128333,185.1368937,185.1368947
213,0.062497222,9.422646667,188.2847511,188.2847522
214,0.0627475,9.421145,186.5265639,186.526565
215,0.062999167,9.419635,184.3784708,184.3784719
216,0.063398333,9.41724,182.4557651,182.4557661
217,0.063777222,9.414966667,184.4047906,184.4047917
218,0.064027778,9.413463333,184.7121891,184.7121902
219,0.064277222,9.411966667,189.4861486,189.4861497
220,0.0645275,9.410465,192.6944203,192.6944214
221,0.064775278,9.408978333,194.655243,194.6552441
222,0.065165556,9.406636667,196.3551425,196.3551437
223,0.065538056,9.404401667,203.0857693,203.0857705
224,0.065788333,9.4029,205.8026676,205.8026688
225,0.066036111,9.401413333,205.6673803,205.6673815
226,0.066285833,9.40017,207.8026394,207.8026406
227,0.066535278,9.403163333,211.4676557,211.467657
228,0.066930833,9.40791,213.660624,213.6606253
229,0.067307222,9.412426667,210.7382643,210.7382656
230,0.067555833,9.41541,204.7950797,204.795081
231,0.067807222,9.418426667,199.5287585,199.5287597
232,0.068060278,9.421463333,198.2498529,198.2498541
233,0.068313333,9.4245,196.5264763,196.5264775
234,0.068702222,9.429166667,195.0171347,195.0171359
235,0.069075,9.43364,193.441732,193.4417332
236,0.069322222,9.436606667,192.2349178,192.234919
237,0.0695725,9.43961,193.0620531,193.0620543
238,0.069823611,9.442623333,185.7997003,185.7997015
239,0.070072222,9.445606667,189.8839731,189.8839743
240,0.0704725,9.45041,194.5821167,194.5821179
241,0.070846944,9.454903333,194.8554698,194.8554711
242,0.071093056,9.457856667,197.458229,197.4582303
243,0.071341667,9.46084,203.2270753,203.2270766
244,0.07159,9.46382,208.8887591,208.8887605
245,0.071840278,9.466823333,210.1802924,210.1802938
246,0.072216944,9.471343333,210.7979099,210.7979113
247,0.072576667,9.47566,208.6685622,208.6685636
248,0.072826389,9.478656667,208.5384877,208.5384891
249,0.073079444,9.481693333,205.1687725,205.1687739
250,0.073329722,9.484696667,202.4340626,202.4340639
251,0.0735775,9.48767,201.3470282,201.3470295
252,0.073974722,9.492436667,200.6574044,200.6574057
253,0.074347778,9.496913333,202.9320716,202.932073
254,0.074596389,9.499896667,204.3951104,204.3951118
255,0.074846389,9.502896667,202.0550123,202.0550137
256,0.075095,9.50588,203.6941527,203.6941541
257,0.075341667,9.50884,198.0936951,198.0936965
258,0.075738333,9.5136,192.4426894,192.4426907
259,0.07612,9.51818,188.1724154,188.1724167
260,0.076368889,9.521166667,185.6551544,185.6551557
261,0.076617222,9.524146667,184.4785646,184.4785659
262,0.076864722,9.527116667,187.1399527,187.139954
263,0.077115278,9.530123333,180.971326,180.9713273
264,0.077498889,9.534726667,173.2253778,173.225379
265,0.077865556,9.539126667,168.7433596,168.7433608
266,0.078114722,9.542116667,166.4171812,166.4171824
267,0.078366111,9.545133333,166.5131983,166.5131995
268,0.078618611,9.548163333,165.5548892,165.5548904
269,0.078873056,9.551216667,159.3743594,159.3743605
270,0.079263611,9.555903333,155.1652974,155.1652985
271,0.079632778,9.560333333,153.2152269,153.215228
272,0.079881389,9.563316667,147.5959652,147.5959663
273,0.080128056,9.566276667,149.0892045,149.0892056
274,0.0803775,9.56927,143.9559477,143.9559488
275,0.080628333,9.57228,144.2733261,144.2733272
276,0.081025278,9.577043333,144.0868677,144.0868688
277,0.081400833,9.58155,146.5319572,146.5319583
278,0.081651944,9.584563333,149.0608023,149.0608034
279,0.081898889,9.587526667,149.7735799,149.773581
280,0.082148056,9.590516667,151.1564836,151.1564847
281,0.082400278,9.593543333,154.9310989,154.9311001
282,0.082775,9.59804,158.8325856,158.8325868
283,0.083134444,9.6,161.4032057,161.4032069
284,0.083382778,9.6,163.2254492,163.2254504
285,0.083632222,9.6,159.7591274,159.7591286
286,0.083883333,9.6,158.6589418,158.658943
287,0.0841375,9.6,156.3062354,156.3062366
288,0.084545556,9.6,152.9858958,152.985897
289,0.084927778,9.6,148.2137946,148.2137958
290,0.085177222,9.6,147.0812902,147.0812913
291,0.085430556,9.6,146.3906353,146.3906364
292,0.085681389,9.6,149.9303709,149.9303721
293,0.085930833,9.6,153.9582428,153.958244
294,0.086343333,9.6,159.0843739,159.0843752
295,0.086725278,9.6,162.4823114,162.4823127
296,0.086977222,9.6,164.7717406,164.7717419
297,0.087231389,9.6,169.4527462,169.4527476
298,0.087482778,9.6,172.3256342,172.3256356
299,0.087734722,9.6,172.8292477,172.8292491
300,0.088131389,9.6,173.5873379,173.5873393
301,0.088505278,9.6,177.5941266,177.594128
302,0.088754444,9.6,178.5613191,178.5613206
303,0.089005556,9.6,181.1780574,181.1780589
304,0.0892525,9.6,178.7405725,178.740574
305,0.089500278,9.6,177.3996382,177.3996397
306,0.089890278,9.6,175.7190517,175.7190532
307,0.0902625,9.6,178.6736146,178.6736161
308,0.090508333,9.6,178.2847892,178.2847907
309,0.0907575,9.6,179.1579006,179.1579021
310,0.091008889,9.6,185.3315859,185.3315875
311,0.091259167,9.6,187.7195158,187.7195174
312,0.091658333,9.6,189.6947408,189.6947424
313,0.092036667,9.6,190.3875726,190.3875742
314,0.092284444,9.6,190.0233349,190.0233365
315,0.092532778,9.6,190.1922257,190.1922273
316,0.092781389,9.6,191.6718317,191.6718333
317,0.093033333,9.6,192.8699332,192.8699349
318,0.093429444,9.6,193.5260687,193.5260704
319,0.093804722,9.6,190.478403,190.4784047
320,0.094053056,9.6,191.7443014,191.7443031
321,0.094299444,9.6,188.9506178,188.9506195
322,0.094552222,9.6,183.4183868,183.4183884
323,0.094804444,9.6,182.7026902,182.7026918
324,0.0952075,9.6,183.4418092,183.4418108
325,0.0955875,9.6,183.8778448,183.8778464
326,0.095835278,9.6,185.0125982,185.0125998
327,0.096086667,9.6,188.3185511,188.3185528
328,0.096341389,9.6,186.0041318,186.0041335
329,0.096593333,9.6,185.0192023,185.019204
330,0.096991111,9.6,183.46401,183.4640117
331,0.097366667,9.6,183.7566783,183.75668
332,0.097616944,9.6,185.6826728,185.6826745
333,0.09787,9.6,183.7529811,183.7529828
334,0.098122222,9.6,178.1531175,178.1531191
335,0.098373611,9.6,173.7031906,173.7031922
336,0.098781944,9.6,168.3398315,168.339833
337,0.099165833,9.6,166.2180813,166.2180828
338,0.099414167,9.6,165.1943182,165.1943197
339,0.099663611,9.599648333,163.3891327,163.3891342
340,0.099919722,9.598111667,164.4258471,164.4258486
341,0.10017,9.59661,163.2552722,163.2552737
342,0.100546389,9.594351667,161.7820433,161.7820448
343,0.100906111,9.592193333,163.6894401,163.6894416
344,0.101152222,9.590716667,162.6226188,162.6226203
345,0.101401944,9.589218333,162.6331137,162.6331152
346,0.101652778,9.587713333,159.9327492,159.9327507
347,0.101899722,9.586231667,158.4373958,158.4373973
348,0.102298889,9.583836667,157.2546777,157.2546792
349,0.102676389,9.581571667,160.7531398,160.7531413
350,0.102924167,9.580085,161.8352263,161.8352279
351,0.1031725,9.578595,156.3322308,156.3322323
352,0.103421944,9.577098333,150.9910657,150.9910672
353,0.103674167,9.575585,147.2580727,147.2580741
354,0.104075,9.57318,144.7703356,144.770337
355,0.104451667,9.57092,145.8268648,145.8268662
356,0.104699444,9.569433333,149.2116982,149.2116997
357,0.104947778,9.567943333,151.7256789,151.7256804
358,0.105199167,9.566435,150.3763993,150.3764008
359,0.105450556,9.564926667,154.9329753,154.9329768
360,0.105840556,9.562586667,158.5629493,158.5629509
361,0.106208056,9.560381667,162.7922693,162.7922709
362,0.106456667,9.55889,160.8493489,160.8493505
363,0.106709444,9.557373333,158.6750203,158.6750219
364,0.106960278,9.555868333,158.6990035,158.6990051
365,0.107209444,9.554373333,159.7046762,159.7046778
366,0.107603056,9.552011667,160.8158487,160.8158503
367,0.107978889,9.549756667,162.5483701,162.5483717
368,0.108228889,9.548256667,162.7817263,162.781728
369,0.108478611,9.546758333,163.8520539,163.8520556
370,0.10873,9.54525,165.5517138,165.5517155
371,0.108980278,9.543748333,164.0633444,164.0633461
372,0.109378611,9.541358333,163.0950545,163.0950562
373,0.109758889,9.539076667,164.5872537,164.5872554
374,0.110011944,9.537558333,167.8032667,167.8032684
375,0.110266667,9.53603,169.0221749,169.0221767
376,0.110518889,9.534516667,169.9342617,169.9342635
377,0.110773056,9.532991667,169.6907509,169.6907527
378,0.111151389,9.530721667,167.9700727,167.9700745
379,0.111511111,9.528563333,161.5470503,161.547052
380,0.11176,9.52707,156.2970531,156.2970547
381,0.112009167,9.525575,158.9467522,158.9467539
382,0.112257222,9.524086667,159.0960532,159.0960549
383,0.112504722,9.522601667,154.4996857,154.4996873
384,0.112892778,9.520273333,150.2120495,150.2120511
385,0.113264167,9.518045,148.5905057,148.5905073
386,0.113515278,9.516538333,146.2426959,146.2426975
387,0.113763611,9.515048333,146.4560913,146.4560929
388,0.114013333,9.51355,141.9586329,141.9586344
389,0.1142625,9.512055,141.4006336,141.4006351
390,0.114664444,9.509643333,141.7394229,141.7394244
391,0.115042222,9.507376667,141.2672791,141.2672806
392,0.115288056,9.505901667,140.0781647,140.0781662
393,0.115538333,9.5044,141.4784221,141.4784236
394,0.115792222,9.502876667,140.6146933,140.6146948
395,0.116043333,9.50137,141.7554167,141.7554183
396,0.116436667,9.50297,143.1371646,143.1371662
397,0.116810278,9.509695,144.9709777,144.9709793
398,0.117060556,9.5142,144.1293912,144.1293928
399,0.117312778,9.51874,142.5271696,142.5271712
400,0.117566389,9.523305,143.2925641,143.2925657
401,0.117817778,9.52783,150.8559164,150.8559181
402,0.11817,9.53417,157.0548754,157.0548772
403,0.118507778,9.54025,156.5776149,156.5776167
404,0.118759167,9.544775,157.1487795,157.1487813
405,0.119010278,9.549295,157.516824,157.5168258
406,0.119259722,9.553785,158.0437007,158.0437025
407,0.119509167,9.558275,156.4363321,156.4363339
408,0.119845556,9.56433,154.934949,154.9349508
409,0.120171667,9.5702,155.6046757,155.6046775
410,0.120418611,9.574645,154.7953414,154.7953432
411,0.120668889,9.57915,149.0728594,149.0728611
412,0.120921111,9.58369,147.743655,147.7436567
413,0.121171389,9.588195,151.9212639,151.9212657
414,0.121521389,9.594495,156.9335011,156.9335029
