Meas,Time,Temperature,Vmax
1,1.11692,9.8,14.78369416
2,1.117260833,9.8,14.7241964
3,1.117592778,9.8,15.99715686
4,1.117843056,9.8,15.02788104
5,1.118092222,9.8,19.06736335
6,1.118340833,9.8,19.45097878
7,1.118595,9.8,19.80635533
8,1.118937778,9.8,20.20274725
9,1.119271944,9.8,18.6256946
10,1.119515833,9.8,17.24337822
11,1.119760833,9.8,13.71475845
12,1.120006389,9.8,12.03826881
13,1.120253333,9.8,9.173166388
14,1.120595278,9.8,6.630956379
15,1.120927778,9.8,4.582606013
16,1.121175,9.8,6.084199419
17,1.121423611,9.8,5.533703307
18,1.121671389,9.8,10.3950921
19,1.121915556,9.8,7.948842698
20,1.122251944,9.8,5.373908445
21,1.122581389,9.8,6.998203673
22,1.122827222,9.8,7.761688174
23,1.123073333,9.8,2.748353857
24,1.123320833,9.8,-3.449928568
25,1.123567222,9.8,-7.851630588
26,1.123901944,9.8,-11.94098595
27,1.124230833,9.8,-11.66728379
28,1.124480278,9.8,-15.27886537
29,1.124726111,9.8,-17.70830943
30,1.124971944,9.8,-19.51162463
31,1.125220278,9.8,-21.31332005
32,1.125560556,9.8,-23.31127692
33,1.125891111,9.8,-26.37936034
34,1.126136667,9.8,-27.4646999
35,1.126385556,9.8,-24.48050989
36,1.126632222,9.8,-22.62547395
37,1.1268825,9.8,-24.84241195
38,1.127223611,9.8,-26.70527603
39,1.127556944,9.8,-26.26110382
40,1.127804722,9.8,-25.0135708
41,1.128056667,9.8,-16.09459427
42,1.1283025,9.8,-15.44113458
43,1.128548611,9.8,-14.31934884
44,1.128890833,9.8,-13.67598557
45,1.129227222,9.8,-12.87222819
46,1.129475833,9.8,-13.27160812
47,1.129725278,9.8,-11.0374803
48,1.129973056,9.8,-13.10311289
49,1.130220556,9.8,-15.45641624
50,1.130563889,9.8,-17.49934522
51,1.130901944,9.8,-18.91239124
52,1.131147222,9.8,-19.78793232
53,1.131398333,9.8,-15.14339644
54,1.131648611,9.8,-12.59677579
55,1.131896111,9.8,-12.97698811
56,1.132236944,9.8,-13.63103208
57,1.132568056,9.8,-13.40861559
58,1.132813333,9.8,-13.91299848
59,1.133061944,9.8,-13.78669852
60,1.133311667,9.8,-10.65361464
61,1.133561389,9.806841667,-11.36560275
62,1.133903611,9.817108333,-11.98439509
63,1.134237222,9.827116667,-13.6631887
64,1.134484722,9.834541667,-15.3568475
65,1.1347325,9.841975,-18.15725494
66,1.13498,9.8494,-20.32527497
67,1.135225833,9.856775,-19.20286049
68,1.135567778,9.867033333,-18.11851921
69,1.135901944,9.877058333,-16.58257315
70,1.13615,9.8845,-15.42830788
71,1.136398056,9.891941667,-15.22544608
72,1.136645,9.89935,-17.49283566
73,1.1368925,9.906775,-22.10592866
74,1.137235278,9.917058333,-26.95571106
75,1.137567222,9.927016667,-28.47677699
76,1.137810833,9.934325,-28.27308251
77,1.138055833,9.941675,-26.31185244
78,1.138300833,9.949025,-26.61116944
79,1.138549167,9.956475,-25.92992529
80,1.138886389,9.966591667,-25.09540097
81,1.139217222,9.976516667,-26.02259093
82,1.139464167,9.983925,-24.70166155
83,1.139710278,9.991308333,-23.71546989
84,1.139959722,9.998791667,-24.44906514
85,1.140208611,10.00625833,-22.74886481
86,1.140548333,10.01645,-20.96230514
87,1.140878611,10.02635833,-20.94859902
88,1.141127778,10.03383333,-21.92316405
89,1.141376389,10.04129167,-23.82838283
90,1.141622222,10.04866667,-23.8742015
91,1.141868611,10.05605833,-21.86414129
92,1.142207778,10.06623333,-19.85023515
93,1.142538889,10.07616667,-18.13605669
94,1.142788056,10.08364167,-17.0503168
95,1.143035833,10.091075,-14.83323487
96,1.143281667,10.09845,-14.21780397
97,1.143526111,10.10578333,-10.38901294
98,1.143864167,10.115925,-6.391523568
99,1.144195833,10.125875,-7.267874056
100,1.144443611,10.13330833,-1.756318029
101,1.144693056,10.14079167,-0.170750265
102,1.144940556,10.14821667,0.559725144
103,1.145187778,10.15563333,0.980325097
104,1.145521667,10.16565,1.432260954
105,1.145848056,10.17544167,2.664651827
106,1.146092778,10.18278333,2.482760533
107,1.146339722,10.19019167,9.752195319
108,1.146585556,10.19756667,9.922550479
109,1.146829444,10.20488333,9.287310479
110,1.147171389,10.21514167,8.402837391
111,1.147503611,10.22510833,12.90303058
112,1.1477525,10.232575,11.10756664
113,1.148003611,10.24010833,9.815877738
114,1.148248333,10.24745,12.07411825
115,1.148498333,10.25495,11.66509739
116,1.148833611,10.26500833,11.17662921
117,1.149162222,10.27486667,9.768139311
118,1.149408056,10.28224167,11.19170596
119,1.149652222,10.28956667,14.20400167
120,1.149897778,10.29693333,17.77935838
121,1.150145833,10.2965,18.76791187
122,1.150484444,10.28837333,19.91888675
123,1.150811667,10.28052,22.27546763
124,1.151058333,10.2746,23.26111087
125,1.151303333,10.26872,27.16293443
126,1.151549167,10.26282,28.34667281
127,1.151795833,10.2569,25.89379125
128,1.152128611,10.24891333,23.64528997
129,1.152456111,10.24105333,25.42550971
130,1.152705833,10.23506,24.48784887
131,1.152955278,10.22907333,24.4509323
132,1.153202778,10.22313333,22.80968101
133,1.153451667,10.21716,19.4707136
134,1.153788611,10.20907333,15.93717367
135,1.154121111,10.20109333,16.29898482
136,1.154371389,10.19508667,12.63559471
137,1.154621944,10.18907333,10.1950322
138,1.154870556,10.18310667,12.98257866
139,1.155118889,10.17714667,11.16516182
140,1.155455278,10.16907333,9.342636308
141,1.155787222,10.16110667,10.6704977
142,1.156032778,10.15521333,13.20560256
143,1.156280556,10.14926667,12.01122917
144,1.156533611,10.14319333,7.115515213
145,1.156783889,10.13718667,2.151460235
146,1.157125556,10.12898667,-2.414888044
147,1.157458333,10.121,-0.98402827
148,1.157707778,10.11501333,-3.480659968
149,1.157954167,10.1091,-5.089893272
150,1.158204444,10.10309333,-5.805812335
151,1.158454167,10.0971,-5.966708587
152,1.158791111,10.08901333,-6.429994206
153,1.159119444,10.08113333,-6.210026763
154,1.159368611,10.07515333,-7.057157777
155,1.159616667,10.0692,-5.089058253
156,1.159865,10.06324,-3.206386475
157,1.160115278,10.05723333,-7.051981473
158,1.160455556,10.04906667,-10.9258423
159,1.160790556,10.04102667,-12.20970353
160,1.161038333,10.03508,-11.07949429
161,1.161287778,10.02909333,-2.732685987
162,1.161538056,10.02308667,-2.370057562
163,1.1617875,10.0171,0.506184426
164,1.162124722,10.00900667,3.171266726
165,1.162457222,10.00102667,8.198720513
166,1.162704167,9.9951,9.341956304
167,1.162948889,9.989226667,12.20065975
168,1.163196389,9.983286667,12.00672981
169,1.163445278,9.977313333,10.82841606
170,1.163788611,9.969073333,10.10772897
171,1.164122222,9.961066667,4.467115118
172,1.164370833,9.9551,2.547523534
173,1.1646175,9.94918,2.249001554
174,1.164863056,9.943286667,3.343149689
175,1.165108889,9.937386667,4.312640942
176,1.165451667,9.92916,4.675376543
177,1.165786111,9.921133333,3.305052603
178,1.166035556,9.915146667,3.232476846
179,1.166283889,9.909186667,-0.797832516
180,1.1665325,9.90322,1.989490261
181,1.166778611,9.9,2.759985207
182,1.167123611,9.9,3.72397413
183,1.167460833,9.9,3.310835377
184,1.167709444,9.9,2.967721951
185,1.1679525,9.9,-3.556252656
186,1.168195833,9.9,-9.570667248
187,1.168443333,9.9,-14.31203856
188,1.168784722,9.9,-18.96360921
189,1.1691175,9.9,-19.40707126
190,1.169364167,9.9,-22.27479243
191,1.169613611,9.9,-22.48735842
192,1.169858333,9.9,-25.79133178
193,1.170103611,9.9,-28.22419383
194,1.1704425,9.9,-30.68153581
195,1.170774167,9.9,-30.18133626
196,1.1710225,9.9,-24.03383459
197,1.171271944,9.9,-24.18729954
198,1.171520833,9.9,-21.27917489
199,1.171769167,9.9,-18.35071125
200,1.172107222,9.9,-15.38819755
201,1.1724375,9.9,-14.42180872
202,1.172684167,9.9,-13.00863499
203,1.172930556,9.9,-15.38278217
204,1.173178889,9.9,-18.00172607
205,1.173424167,9.9,-17.34334437
206,1.173759444,9.9,-16.49091285
207,1.174090833,9.9,-15.99183353
208,1.174337778,9.9,-17.64967769
209,1.174584722,9.9,-18.98718941
210,1.174832222,9.9,-17.90833592
211,1.175079722,9.9,-20.25523477
212,1.175415,9.9,-22.65751935
213,1.175745556,9.9,-20.42316878
214,1.175992778,9.9,-17.6766959
215,1.176240278,9.9,-16.84387496
216,1.176486944,9.9,-19.63346814
217,1.176730833,9.9,-18.13286738
218,1.177069722,9.9,-16.7361494
219,1.177402778,9.9,-19.06356823
220,1.177648056,9.9,-23.68971449
221,1.1778925,9.9,-23.39897212
222,1.178139722,9.9,-22.31489465
223,1.178385556,9.9,-23.16611183
224,1.178731944,9.9,-23.55031981
225,1.179065556,9.9,-25.11621588
226,1.179311944,9.9,-22.42042849
227,1.179557778,9.9,-20.67886957
228,1.1798075,9.9,-18.34311434
229,1.180054444,9.9,-17.74702277
230,1.1804025,9.9,-17.51445774
231,1.180739722,9.9,-13.68983183
232,1.180988889,9.9,-13.91873715
233,1.181236667,9.9,-14.70679028
234,1.181483333,9.9,-9.647816174
235,1.181726389,9.9,-8.016549438
236,1.182066111,9.9,-6.268824579
237,1.182402222,9.9,-2.269649344
238,1.18265,9.9,-0.182473042
239,1.182896667,9.9,3.067305393
240,1.183143333,9.9,5.784662727
241,1.18339,9.9017,5.650051202
242,1.183728611,9.911858333,5.74271533
243,1.184061944,9.921858333,8.732038375
244,1.184306944,9.929208333,9.348146962
245,1.184553333,9.9366,14.07186726
246,1.184801944,9.944058333,15.77000893
247,1.185047778,9.951433333,13.66311312
248,1.185388611,9.961658333,11.78539547
249,1.185723056,9.971691667,11.45472485
250,1.185968889,9.979066667,12.55415961
251,1.186216389,9.986491667,13.22395573
252,1.186461389,9.993841667,12.47522203
253,1.18671,10.0013,14.22189094
254,1.187049722,10.01149167,15.79904791
255,1.187383333,10.0215,19.50384606
256,1.18763,10.0289,18.36417287
257,1.187878333,10.03635,14.28024518
258,1.188128056,10.04384167,12.73708807
259,1.188374444,10.05123333,12.14237789
260,1.1887125,10.061375,11.79568753
261,1.189043611,10.07130833,11.21830697
262,1.1892975,10.078925,8.880101514
263,1.189551389,10.08654167,9.224280995
264,1.189799444,10.09398333,7.393310411
265,1.190048611,10.10145833,3.068704761
266,1.190381389,10.11144167,-1.286753516
267,1.190708333,10.12125,-1.022538502
268,1.190953333,10.1286,-0.9477493
269,1.1912,10.136,-1.761283392
270,1.191450278,10.14350833,-4.434188701
271,1.191697778,10.15093333,-3.937864883
272,1.1920325,10.160975,-3.258987558
273,1.192361944,10.17085833,2.972696956
274,1.192610833,10.178325,4.900836392
275,1.19286,10.1858,7.02723821
276,1.193107778,10.19323333,9.920502204
277,1.193354722,10.20064167,6.580899448
278,1.193685556,10.21056667,3.288993216
279,1.194012222,10.22036667,0.186258279
280,1.194258333,10.22775,1.880504588
281,1.194505,10.23515,5.956537864
282,1.194755278,10.24265833,5.522908694
283,1.195003056,10.25009167,9.249609426
284,1.195348333,10.26045,13.02481764
285,1.195683611,10.27050833,14.22911304
286,1.195931111,10.27793333,14.40716491
287,1.196178056,10.28534167,18.52511903
288,1.196425,10.29275,19.79610676
289,1.196675,10.30025,18.81064809
290,1.197014722,10.31044167,17.85046356
291,1.197346667,10.3204,16.59777335
292,1.197594444,10.32783333,15.17003312
293,1.197840833,10.335225,16.2837314
294,1.198089722,10.34269167,16.40637048
295,1.198342778,10.35028333,17.22848791
296,1.198678889,10.36036667,17.88247892
297,1.199009444,10.37028333,15.24185114
298,1.199253889,10.37761667,16.95153808
299,1.199498889,10.38496667,18.10505941
300,1.199749167,10.392475,21.3795117
301,1.199998333,10.39995,22.39226842
302,1.200344722,10.393795,23.6935039
303,1.200679167,10.387775,24.38477626
304,1.200926667,10.38332,24.4546005
305,1.201173333,10.37888,21.27824471
306,1.201416389,10.374505,20.92671393
307,1.201660556,10.37011,18.23806723
308,1.202002222,10.36396,15.47238755
309,1.202334722,10.357975,14.62093279
310,1.202580556,10.35355,11.34144839
311,1.202830278,10.349055,15.98556631
312,1.203085,10.34447,13.05878025
313,1.203334444,10.33998,8.163788676
314,1.203678056,10.333795,3.580073306
315,1.204016111,10.32771,4.477368079
316,1.204263889,10.32325,8.623199649
317,1.204512222,10.31878,4.564830683
318,1.204761944,10.314285,2.871222652
319,1.205014722,10.309735,4.651398204
320,1.205350833,10.303685,6.012691725
321,1.205674444,10.29786,5.85558439
322,1.205920556,10.29343,3.273767433
323,1.206165556,10.28902,2.192584117
324,1.206411111,10.2846,-0.449626054
325,1.206660278,10.280115,-3.237600038
326,1.207000278,10.273995,-5.798650796
327,1.207334167,10.267985,-4.280988604
328,1.207580556,10.26355,-1.58235305
329,1.207828056,10.259095,-0.469212963
330,1.208074722,10.254655,2.294003601
331,1.208320833,10.250225,-0.980905587
332,1.208658056,10.244155,-4.06068754
333,1.208991667,10.23815,-2.948002104
334,1.209241944,10.233645,-0.41974923
335,1.209490556,10.22917,-2.159526317
336,1.209739722,10.224685,-4.854695165
337,1.209986667,10.22024,-6.684988328
338,1.210322778,10.21419,-8.679445631
339,1.210654167,10.208225,-8.539891685
340,1.210903611,10.203735,-10.6045874
341,1.211150556,10.19929,-14.58897463
342,1.211396389,10.194865,-13.15900284
343,1.211641944,10.190445,-15.93155452
344,1.211979444,10.18437,-18.33801249
345,1.212313056,10.178365,-20.20142369
346,1.212563333,10.17386,-18.81160652
347,1.212813611,10.169355,-21.84443606
348,1.213061389,10.164895,-19.80889558
349,1.213310833,10.160405,-18.92680097
350,1.213650556,10.15429,-18.12283531
351,1.213982222,10.14832,-20.30968686
352,1.21423,10.14386,-19.84212627
353,1.214481389,10.139335,-20.11704746
354,1.214731389,10.134835,-17.01952428
355,1.21498,10.13036,-14.53239436
356,1.215318056,10.124275,-12.06898812
357,1.215649167,10.118315,-7.318696963
358,1.215896667,10.11386,-4.999278042
359,1.216145833,10.109375,-1.103916195
360,1.216395556,10.10488,-2.017315456
361,1.216645,10.10039,-4.721925965
362,1.216982778,10.09810333,-7.167563811
363,1.217313056,10.09612167,-4.425558175
364,1.217561389,10.09463167,-7.882720831
365,1.217808056,10.09315167,-6.887912155
366,1.218053889,10.09167667,-3.406316898
367,1.2183025,10.090185,-3.963494851
368,1.218633056,10.08820167,-4.355387121
369,1.218960556,10.08623667,-5.119382966
370,1.219209722,10.08474167,-1.750586132
371,1.219457222,10.08325667,-0.348488216
372,1.219705,10.08177,0.144845933
373,1.219951944,10.08028833,3.662092986
374,1.22029,10.07826,7.150592294
375,1.220619444,10.07628333,10.99225937
376,1.220863889,10.07481667,10.75524555
377,1.221112222,10.07332667,6.628234113
378,1.221361667,10.07183,2.297388988
379,1.221607222,10.07035667,0.796357935
380,1.221948333,10.06831,-0.405806631
381,1.222281944,10.06630833,-0.264045302
382,1.222530556,10.06481667,-2.656769654
383,1.222775556,10.06334667,-3.707450686
384,1.223023611,10.06185833,-5.340202217
385,1.223273056,10.06036167,-7.065689722
386,1.223612222,10.05832667,-8.820036532
387,1.223942222,10.05634667,-8.109441439
388,1.224189722,10.05486167,-5.572701191
389,1.2244375,10.053375,-6.57214959
390,1.224684167,10.051895,-6.1017659
391,1.22493,10.05042,-8.083237037
392,1.225269167,10.048385,-9.774168093
393,1.225601389,10.04639167,-6.60066896
394,1.225848056,10.04491167,-6.419712679
395,1.226095,10.04343,-3.774802002
396,1.22634,10.04196,-2.869838961
397,1.226589444,10.04046333,-3.823223706
398,1.226927222,10.03843667,-4.762640343
399,1.227256389,10.03646167,-7.748205526
400,1.227503611,10.03497833,-9.350975281
401,1.227748889,10.03350667,-11.75965053
402,1.227998056,10.03201167,-14.9104371
403,1.228243889,10.03053667,-12.88935889
404,1.228572778,10.02856333,-10.80988944
405,1.228896667,10.02662,-10.18209935
406,1.229141944,10.02514833,-10.70138452
407,1.229388333,10.02367,-7.064293285
408,1.229639167,10.022165,-9.256033019
409,1.229889444,10.02066333,-13.82765213
410,1.230226944,10.01863833,-18.52219591
411,1.230559722,10.01664167,-16.13604614
412,1.230805278,10.01516833,-13.43387294
413,1.231054444,10.01367333,-9.549043578
414,1.231302222,10.01218667,-7.773264067
415,1.231552778,10.01068333,-5.131787832
416,1.231892778,10.00864333,-2.222601782
417,1.232226389,10.00664167,-0.258009001
418,1.232473611,10.00515833,1.507705383
419,1.232718333,10.00369,6.17690959
420,1.232964444,10.00221333,7.733597641
421,1.233211389,10.00073167,5.381630461
422,1.233551111,10,3.166641215
423,1.233883611,10,1.003209385
424,1.234130278,10,-1.213767659
425,1.234376944,10,-1.660782297
426,1.234625833,10,1.50449793
427,1.234874167,10,0.135133934
428,1.235213889,10,-1.502344427
429,1.235546667,10,-1.223402484
430,1.235794444,10,-0.286951188
431,1.2360425,10,0.907600133
432,1.236286667,10,-1.13615277
433,1.236529722,10,-2.903367571
434,1.236865833,10,-4.336519841
435,1.237203056,10,-1.596660751
436,1.237448889,10,-2.40957594
437,1.237693333,10,-4.055705866
438,1.2379425,10,-3.132992478
439,1.23819,10,-1.809231808
440,1.238525278,10,-0.719969263
441,1.238850556,10,-1.029971754
442,1.239101944,10,-0.243579001
443,1.239349722,10,2.313839679
444,1.239595278,10,0.611933689
445,1.239845,10,-2.358278808
446,1.240179444,10,-5.227069757
447,1.240508056,10,-0.773655914
448,1.240760556,10,2.205541906
449,1.241007778,10,3.706982005
450,1.241255833,10,8.466788634
451,1.241504167,10,5.700170628
452,1.241845278,10,3.20560396
453,1.242181111,10,5.028834977
454,1.242427222,10,4.335653706
455,1.242673889,10,-0.78552291
456,1.242920278,10,-4.028596304
457,1.243168056,10,-7.009366692
458,1.243509722,10,-10.15034416
459,1.243843333,10,-9.133932287
460,1.244089167,10,-8.813424131
461,1.244335833,10,-9.955282049
462,1.244587222,10,-9.698633195
463,1.2448375,10,-11.22901242
464,1.2451775,10,-12.64586058
465,1.245511944,10,-11.97285002
466,1.245758889,10,-12.34262538
467,1.246003611,10,-9.92925423
468,1.246249444,10,-5.769181092
469,1.246498889,10,-5.092738088
470,1.246839722,10,-4.270101535
471,1.247175833,10,-4.637924077
472,1.247423611,10,-3.752605296
473,1.247671389,10,-2.656002878
474,1.247918611,10,-2.837801751
475,1.248169167,10,-2.764879985
476,1.248513611,10,-2.981712256
477,1.248848056,10,-2.539466734
478,1.249094444,10,-4.787568082
479,1.2493425,10,-3.493580883
480,1.249595278,10,-3.582481695
481,1.249844167,10,-4.970784849
482,1.25018,9.99892,-6.160238637
483,1.25051,9.99694,-2.993371789
484,1.250756667,9.99546,-4.445234876
485,1.2510025,9.993985,-6.082724888
486,1.2512475,9.992515,-7.111481411
487,1.251495278,9.991028333,-7.706075327
488,1.2518375,9.988975,-8.390928684
489,1.252169444,9.986983333,-7.540242275
490,1.252416111,9.985503333,-5.688964312
491,1.252661944,9.984028333,-3.861074801
492,1.252905,9.98257,-0.576999546
493,1.253150833,9.981095,-0.272728825
494,1.253487222,9.979076667,0.145650952
495,1.253813333,9.97712,0.922045455
496,1.254059722,9.975641667,-2.653777844
497,1.254308611,9.974148333,-6.260473598
498,1.254557778,9.972653333,-8.266970289
499,1.254803889,9.971176667,-13.52906883
500,1.255136667,9.96918,-18.96701191
501,1.255464722,9.967211667,-17.07328918
502,1.255713056,9.965721667,-16.82682617
503,1.255960833,9.964235,-17.51369333
504,1.2562075,9.962755,-18.29704355
505,1.256456667,9.96126,-21.05600968
506,1.256792222,9.959246667,-23.39644046
507,1.257118333,9.95729,-22.8327188
508,1.257363889,9.955816667,-17.65562529
509,1.257608333,9.95435,-18.62961814
510,1.257853889,9.952876667,-18.21148907
511,1.2581025,9.951385,-14.72580732
512,1.258441389,9.949351667,-11.38111794
513,1.258772778,9.947363333,-8.870376657
514,1.259017778,9.945893333,-8.270642196
515,1.259263889,9.944416667,-5.593244058
516,1.259511667,9.94293,-5.233871959
517,1.25976,9.94144,-3.74403402
518,1.260096944,9.939418333,-2.520192569
519,1.260429722,9.937421667,-0.591965394
520,1.260679167,9.935925,-0.809155721
521,1.260925556,9.934446667,-3.315042604
522,1.2611725,9.932965,-7.300749643
523,1.261422222,9.931466667,-6.543392775
524,1.261762778,9.929423333,-5.90921503
525,1.262097222,9.927416667,-4.586745078
526,1.262346111,9.925923333,-3.335337613
527,1.262590833,9.924455,-6.702901048
528,1.262834722,9.922991667,-6.865559631
529,1.263080278,9.921518333,-8.936134678
530,1.263413889,9.919516667,-10.57322962
531,1.263741389,9.917551667,-12.23435629
532,1.263989722,9.916061667,-7.796565183
533,1.264240833,9.914555,-6.069449087
534,1.264489444,9.913063333,-2.070764976
535,1.264736389,9.911581667,2.241654064
