Meas,Time,Temperature,Vmax
1,0.350395,9.40237,283.1948817
2,0.350647222,9.403883333,281.3155961
3,0.3509,9.4054,275.8440802
4,0.351146389,9.406878333,274.4009945
5,0.351394722,9.408368333,270.0154819
6,0.351795833,9.410775,265.829452
7,0.352172222,9.413033333,266.0442369
8,0.352424167,9.414545,263.8507976
9,0.352673889,9.416043333,263.7644641
10,0.352923611,9.417541667,264.5792137
11,0.353173611,9.419041667,266.8288921
12,0.353559167,9.421355,268.0829582
13,0.353921944,9.423531667,269.122725
14,0.354171389,9.425028333,262.0531754
15,0.354418333,9.42651,256.1124219
16,0.354667778,9.428006667,255.3290638
17,0.354921389,9.429528333,254.3471141
18,0.355314722,9.431888333,253.2837004
19,0.355689167,9.434135,254.6083903
20,0.355936944,9.435621667,249.3385079
21,0.356186944,9.437121667,247.7462714
22,0.356438611,9.438631667,246.3318524
23,0.35669,9.44014,241.5610972
24,0.357074722,9.442448333,237.9712528
25,0.357441667,9.44465,242.35404
26,0.357692222,9.446153333,244.4289063
27,0.357941667,9.44765,242.5161354
28,0.358193889,9.449163333,241.0810707
29,0.358445833,9.450675,238.449845
30,0.358843333,9.45306,235.2437632
31,0.359218056,9.455308333,232.7555528
32,0.359469444,9.456816667,236.2538517
33,0.3597225,9.458335,235.4081691
34,0.359974722,9.459848333,238.2577724
35,0.360226667,9.46136,232.3928039
36,0.3606225,9.463735,225.0843763
37,0.360998056,9.465988333,227.5882883
38,0.361245556,9.467473333,224.9836085
39,0.361495278,9.468971667,222.4387217
40,0.3617475,9.470485,222.0744928
41,0.361998611,9.471991667,216.8448088
42,0.362399722,9.474398333,213.3725192
43,0.36278,9.47668,211.9406571
44,0.363029444,9.478176667,209.837271
45,0.363279444,9.479676667,211.7734038
46,0.363531944,9.481191667,212.5979457
47,0.363785833,9.482715,212.5101006
48,0.364183056,9.485098333,210.532259
49,0.364560556,9.487363333,205.6362373
50,0.364808611,9.488851667,205.9754337
51,0.365060556,9.490363333,203.6263738
52,0.365310833,9.491865,201.6139065
53,0.365559444,9.493356667,200.9465852
54,0.365946944,9.495681667,201.4675274
55,0.366316111,9.497896667,196.7976295
56,0.366562778,9.499376667,192.3215785
57,0.366809167,9.5,191.3378107
58,0.367058889,9.5,196.9818686
59,0.367309444,9.5,202.4642854
60,0.367706111,9.5,206.3275851
61,0.368084167,9.5,209.8627414
62,0.368335556,9.5,209.3251415
63,0.368586667,9.5,211.8413954
64,0.368834444,9.5,211.474283
65,0.369085,9.5,206.0579209
66,0.3694975,9.5,200.3248852
67,0.369878889,9.5,210.4249274
68,0.370122778,9.5,211.4128492
69,0.370371389,9.5,205.2915907
70,0.37062,9.5,204.3143714
71,0.370870278,9.5,197.6111321
72,0.371262222,9.5,192.7395031
73,0.371632222,9.5,194.407325
74,0.3718825,9.5,197.6324064
75,0.372133889,9.5,199.8731932
76,0.372383056,9.5,199.0006563
77,0.372634722,9.5,204.1029929
78,0.373042778,9.5,207.3431302
79,0.373423056,9.5,204.3541228
80,0.373673611,9.5,208.955629
81,0.373925833,9.5,209.1658284
82,0.374178889,9.5,209.9498857
83,0.374433611,9.5,212.4079884
84,0.374811389,9.5,215.1006087
85,0.375169167,9.5,216.757967
86,0.375417778,9.5,218.9489657
87,0.375666667,9.5,220.5528299
88,0.375918611,9.5,221.4306711
89,0.376170833,9.5,226.7181899
90,0.376573611,9.5,231.9054068
91,0.376951111,9.5,229.0173159
92,0.377201389,9.5,233.2226078
93,0.37745,9.5,237.2613955
94,0.377699444,9.5,235.6048982
95,0.377952778,9.5,230.8842741
96,0.378345278,9.5,226.5540733
97,0.378715278,9.5,231.2338011
98,0.378965278,9.5,229.9419794
99,0.379218889,9.5,232.048351
100,0.379468333,9.5,236.8747289
101,0.379715833,9.5,239.8684272
102,0.380119167,9.5,242.9084663
103,0.3804975,9.5,250.1835541
104,0.380749444,9.5,254.989595
105,0.381003611,9.5,256.2089921
106,0.381255833,9.5,256.4705258
107,0.3815025,9.5,260.7848028
108,0.381878056,9.5,262.6995886
109,0.382236944,9.5,260.4721564
110,0.382487778,9.5,257.8676746
111,0.382738611,9.5,257.6419877
112,0.382986389,9.5,256.8607616
113,0.383236667,9.5,253.4401051
114,0.383629444,9.5,249.2698875
115,0.384001667,9.5,247.1961397
116,0.384248333,9.5,244.7794115
117,0.384498611,9.5,248.0440843
118,0.384747778,9.5,245.5204059
119,0.385000556,9.5,244.8950372
120,0.385400556,9.5,245.6351103
121,0.385776111,9.5,242.9840513
122,0.386024722,9.5,248.0417333
123,0.386274167,9.5,255.2681925
124,0.38653,9.5,254.9691962
125,0.386781111,9.5,255.3655087
126,0.387188056,9.5,254.4362971
127,0.387570556,9.5,253.4934053
128,0.38782,9.5,252.5510646
129,0.388068889,9.5,249.3300156
130,0.388317222,9.5,247.7149313
131,0.388565556,9.5,245.6126289
132,0.388955556,9.5,243.6201637
133,0.389325833,9.5,246.7822668
134,0.389580833,9.5,242.0624609
135,0.389833333,9.5,239.5035165
136,0.390084444,9.5,240.6435178
137,0.3903375,9.5,236.3509597
138,0.390737778,9.5,232.6264609
139,0.391116111,9.5,230.5117319
140,0.391367222,9.5,227.5843403
141,0.391619444,9.5,226.6491842
142,0.391871389,9.5,230.1608452
143,0.392121111,9.5,222.5084346
144,0.392512778,9.5,214.5871546
145,0.392882222,9.5,209.8425903
146,0.393128056,9.5,206.7513165
147,0.393378056,9.5,208.504745
148,0.393630556,9.5,208.6756758
149,0.393884444,9.5,203.422161
150,0.394279444,9.5,198.369482
151,0.394652222,9.5,192.9438637
152,0.3949025,9.5,191.7196161
153,0.395153889,9.5,192.9439839
154,0.395402222,9.5,186.3431551
155,0.39565,9.5,180.9627925
156,0.396045556,9.5,175.0576484
157,0.396419167,9.5,178.6559796
158,0.396665,9.5,182.6401278
159,0.396912778,9.5,184.180669
160,0.397161111,9.5,185.8317019
161,0.3974125,9.5,185.3574422
162,0.397808889,9.5,185.4873675
163,0.398181944,9.5,188.6547675
164,0.398430278,9.5,188.5416878
165,0.398679167,9.5,186.5567024
166,0.398932222,9.5,184.0724957
167,0.399183056,9.5,183.6658375
168,0.399591667,9.5,180.7766064
169,0.399974722,9.5,171.7176623
170,0.400220556,9.498676667,169.7857751
171,0.400470556,9.497176667,169.0505009
172,0.400721944,9.495668333,170.223717
173,0.400970833,9.494175,170.3403823
174,0.401377222,9.491736667,171.4215964
175,0.401755556,9.489466667,167.9180915
176,0.402005,9.48797,168.5499978
177,0.402258056,9.486451667,166.2036966
178,0.402506944,9.484958333,166.1523663
179,0.402758611,9.483448333,169.5154183
180,0.403161667,9.48103,172.3037936
181,0.403536389,9.478781667,173.9548578
182,0.403788611,9.477268333,173.1219057
183,0.404041944,9.475748333,177.4424885
184,0.404293056,9.474241667,174.6408521
185,0.404544167,9.472735,171.1653193
186,0.404941944,9.470348333,166.9429063
187,0.405317222,9.468096667,170.0418041
188,0.405568333,9.46659,168.0453746
189,0.405817778,9.465093333,166.7454517
190,0.406066667,9.4636,171.6315002
191,0.406316111,9.462103333,169.6562355
192,0.406733889,9.459596667,168.6819262
193,0.407123889,9.457256667,171.9899892
194,0.407374167,9.455755,172.844062
195,0.407622778,9.454263333,173.7986044
196,0.407869167,9.452785,172.9565899
197,0.408126389,9.451241667,175.3494257
198,0.408508056,9.448951667,176.8767317
199,0.408868056,9.446791667,174.617857
200,0.409114722,9.445311667,179.4295077
201,0.409366944,9.443798333,175.9049779
202,0.409617222,9.442296667,173.0218391
203,0.409871389,9.440771667,174.2037079
204,0.410244444,9.438533333,175.7281376
205,0.410601667,9.43639,174.2016023
206,0.410852778,9.434883333,177.1750638
207,0.411103333,9.43338,178.836654
208,0.411351667,9.43189,176.1648402
209,0.4116075,9.430355,179.7453998
210,0.412011389,9.427931667,183.5554529
211,0.412391389,9.425651667,180.2436405
212,0.412645278,9.424128333,185.1368937
213,0.412892222,9.422646667,188.2847511
214,0.4131425,9.421145,186.5265639
215,0.413394167,9.419635,184.3784708
216,0.413793333,9.41724,182.4557651
217,0.414172222,9.414966667,184.4047906
218,0.414422778,9.413463333,184.7121891
219,0.414672222,9.411966667,189.4861486
220,0.4149225,9.410465,192.6944203
221,0.415170278,9.408978333,194.655243
222,0.415560556,9.406636667,196.3551425
223,0.415933056,9.404401667,203.0857693
224,0.416183333,9.4029,205.8026676
225,0.416431111,9.401413333,205.6673803
226,0.416680833,9.40017,207.8026394
227,0.416930278,9.403163333,211.4676557
228,0.417325833,9.40791,213.660624
229,0.417702222,9.412426667,210.7382643
230,0.417950833,9.41541,204.7950797
231,0.418202222,9.418426667,199.5287585
232,0.418455278,9.421463333,198.2498529
233,0.418708333,9.4245,196.5264763
234,0.419097222,9.429166667,195.0171347
235,0.41947,9.43364,193.441732
236,0.419717222,9.436606667,192.2349178
237,0.4199675,9.43961,193.0620531
238,0.420218611,9.442623333,185.7997003
239,0.420467222,9.445606667,189.8839731
240,0.4208675,9.45041,194.5821167
241,0.421241944,9.454903333,194.8554698
242,0.421488056,9.457856667,197.458229
243,0.421736667,9.46084,203.2270753
244,0.421985,9.46382,208.8887591
245,0.422235278,9.466823333,210.1802924
246,0.422611944,9.471343333,210.7979099
247,0.422971667,9.47566,208.6685622
248,0.423221389,9.478656667,208.5384877
249,0.423474444,9.481693333,205.1687725
250,0.423724722,9.484696667,202.4340626
251,0.4239725,9.48767,201.3470282
252,0.424369722,9.492436667,200.6574044
253,0.424742778,9.496913333,202.9320716
254,0.424991389,9.499896667,204.3951104
255,0.425241389,9.502896667,202.0550123
256,0.42549,9.50588,203.6941527
257,0.425736667,9.50884,198.0936951
258,0.426133333,9.5136,192.4426894
259,0.426515,9.51818,188.1724154
260,0.426763889,9.521166667,185.6551544
261,0.427012222,9.524146667,184.4785646
262,0.427259722,9.527116667,187.1399527
263,0.427510278,9.530123333,180.971326
264,0.427893889,9.534726667,173.2253778
265,0.428260556,9.539126667,168.7433596
266,0.428509722,9.542116667,166.4171812
267,0.428761111,9.545133333,166.5131983
268,0.429013611,9.548163333,165.5548892
269,0.429268056,9.551216667,159.3743594
270,0.429658611,9.555903333,155.1652974
271,0.430027778,9.560333333,153.2152269
272,0.430276389,9.563316667,147.5959652
273,0.430523056,9.566276667,149.0892045
274,0.4307725,9.56927,143.9559477
275,0.431023333,9.57228,144.2733261
276,0.431420278,9.577043333,144.0868677
277,0.431795833,9.58155,146.5319572
278,0.432046944,9.584563333,149.0608023
279,0.432293889,9.587526667,149.7735799
280,0.432543056,9.590516667,151.1564836
281,0.432795278,9.593543333,154.9310989
282,0.43317,9.59804,158.8325856
283,0.433529444,9.6,161.4032057
284,0.433777778,9.6,163.2254492
285,0.434027222,9.6,159.7591274
286,0.434278333,9.6,158.6589418
287,0.4345325,9.6,156.3062354
288,0.434940556,9.6,152.9858958
289,0.435322778,9.6,148.2137946
290,0.435572222,9.6,147.0812902
291,0.435825556,9.6,146.3906353
292,0.436076389,9.6,149.9303709
293,0.436325833,9.6,153.9582428
294,0.436738333,9.6,159.0843739
295,0.437120278,9.6,162.4823114
296,0.437372222,9.6,164.7717406
297,0.437626389,9.6,169.4527462
298,0.437877778,9.6,172.3256342
299,0.438129722,9.6,172.8292477
300,0.438526389,9.6,173.5873379
301,0.438900278,9.6,177.5941266
302,0.439149444,9.6,178.5613191
303,0.439400556,9.6,181.1780574
304,0.4396475,9.6,178.7405725
305,0.439895278,9.6,177.3996382
306,0.440285278,9.6,175.7190517
307,0.4406575,9.6,178.6736146
308,0.440903333,9.6,178.2847892
309,0.4411525,9.6,179.1579006
310,0.441403889,9.6,185.3315859
311,0.441654167,9.6,187.7195158
312,0.442053333,9.6,189.6947408
313,0.442431667,9.6,190.3875726
314,0.442679444,9.6,190.0233349
315,0.442927778,9.6,190.1922257
316,0.443176389,9.6,191.6718317
317,0.443428333,9.6,192.8699332
318,0.443824444,9.6,193.5260687
319,0.444199722,9.6,190.478403
320,0.444448056,9.6,191.7443014
321,0.444694444,9.6,188.9506178
322,0.444947222,9.6,183.4183868
323,0.445199444,9.6,182.7026902
324,0.4456025,9.6,183.4418092
325,0.4459825,9.6,183.8778448
326,0.446230278,9.6,185.0125982
327,0.446481667,9.6,188.3185511
328,0.446736389,9.6,186.0041318
329,0.446988333,9.6,185.0192023
330,0.447386111,9.6,183.46401
331,0.447761667,9.6,183.7566783
332,0.448011944,9.6,185.6826728
333,0.448265,9.6,183.7529811
334,0.448517222,9.6,178.1531175
335,0.448768611,9.6,173.7031906
336,0.449176944,9.6,168.3398315
337,0.449560833,9.6,166.2180813
338,0.449809167,9.6,165.1943182
339,0.450058611,9.599648333,163.3891327
340,0.450314722,9.598111667,164.4258471
341,0.450565,9.59661,163.2552722
342,0.450941389,9.594351667,161.7820433
343,0.451301111,9.592193333,163.6894401
344,0.451547222,9.590716667,162.6226188
345,0.451796944,9.589218333,162.6331137
346,0.452047778,9.587713333,159.9327492
347,0.452294722,9.586231667,158.4373958
348,0.452693889,9.583836667,157.2546777
349,0.453071389,9.581571667,160.7531398
350,0.453319167,9.580085,161.8352263
351,0.4535675,9.578595,156.3322308
352,0.453816944,9.577098333,150.9910657
353,0.454069167,9.575585,147.2580727
354,0.45447,9.57318,144.7703356
355,0.454846667,9.57092,145.8268648
356,0.455094444,9.569433333,149.2116982
357,0.455342778,9.567943333,151.7256789
358,0.455594167,9.566435,150.3763993
359,0.455845556,9.564926667,154.9329753
360,0.456235556,9.562586667,158.5629493
361,0.456603056,9.560381667,162.7922693
362,0.456851667,9.55889,160.8493489
363,0.457104444,9.557373333,158.6750203
364,0.457355278,9.555868333,158.6990035
365,0.457604444,9.554373333,159.7046762
366,0.457998056,9.552011667,160.8158487
367,0.458373889,9.549756667,162.5483701
368,0.458623889,9.548256667,162.7817263
369,0.458873611,9.546758333,163.8520539
370,0.459125,9.54525,165.5517138
371,0.459375278,9.543748333,164.0633444
372,0.459773611,9.541358333,163.0950545
373,0.460153889,9.539076667,164.5872537
374,0.460406944,9.537558333,167.8032667
375,0.460661667,9.53603,169.0221749
376,0.460913889,9.534516667,169.9342617
377,0.461168056,9.532991667,169.6907509
378,0.461546389,9.530721667,167.9700727
379,0.461906111,9.528563333,161.5470503
380,0.462155,9.52707,156.2970531
381,0.462404167,9.525575,158.9467522
382,0.462652222,9.524086667,159.0960532
383,0.462899722,9.522601667,154.4996857
384,0.463287778,9.520273333,150.2120495
385,0.463659167,9.518045,148.5905057
386,0.463910278,9.516538333,146.2426959
387,0.464158611,9.515048333,146.4560913
388,0.464408333,9.51355,141.9586329
389,0.4646575,9.512055,141.4006336
390,0.465059444,9.509643333,141.7394229
391,0.465437222,9.507376667,141.2672791
392,0.465683056,9.505901667,140.0781647
393,0.465933333,9.5044,141.4784221
394,0.466187222,9.502876667,140.6146933
395,0.466438333,9.50137,141.7554167
396,0.466831667,9.50297,143.1371646
397,0.467205278,9.509695,144.9709777
398,0.467455556,9.5142,144.1293912
399,0.467707778,9.51874,142.5271696
400,0.467961389,9.523305,143.2925641
401,0.468212778,9.52783,150.8559164
402,0.468565,9.53417,157.0548754
403,0.468902778,9.54025,156.5776149
404,0.469154167,9.544775,157.1487795
405,0.469405278,9.549295,157.516824
406,0.469654722,9.553785,158.0437007
407,0.469904167,9.558275,156.4363321
408,0.470240556,9.56433,154.934949
409,0.470566667,9.5702,155.6046757
410,0.470813611,9.574645,154.7953414
411,0.471063889,9.57915,149.0728594
412,0.471316111,9.58369,147.743655
413,0.471566389,9.588195,151.9212639
414,0.471916389,9.594495,156.9335011
415,0.472253611,9.600565,159.149275
416,0.472501389,9.605025,164.3527348
417,0.472753056,9.609555,171.3094572
418,0.473000278,9.614005,173.6982555
419,0.473248611,9.618475,176.3763495
420,0.473628056,9.625305,178.9809422
421,0.473989722,9.631815,183.6502412
422,0.474238889,9.6363,186.629539
423,0.474493056,9.640875,190.7201528
424,0.474744167,9.645395,193.4093531
425,0.474995556,9.64992,191.9832249
426,0.475335556,9.65604,192.1818537
427,0.475865556,9.66558,194.6779412
428,0.476123333,9.67022,194.5744552
429,0.476385556,9.67494,198.5025051
430,0.476635556,9.67944,200.8593186
431,0.476885,9.68393,203.8788441
432,0.477222778,9.69001,205.4341309
433,0.477551111,9.69592,204.2004977
434,0.477802778,9.70045,203.19865
435,0.478055833,9.705005,202.4754993
436,0.478310556,9.70959,204.8635635
437,0.478562778,9.71413,204.0132126
438,0.478947778,9.72106,202.8011109
439,0.479308611,9.727555,200.5239569
440,0.479562778,9.73213,204.5550075
441,0.479815556,9.73668,205.0001085
442,0.480067778,9.74122,203.0131409
443,0.48032,9.74576,203.2096847
444,0.480716389,9.752895,204.2719507
445,0.481087778,9.75958,207.288445
446,0.481335,9.76403,206.4881367
447,0.481582778,9.76849,206.543694
448,0.481837778,9.77308,203.33965
449,0.482089167,9.777605,200.4861028
450,0.482487778,9.78478,196.6703848
451,0.482861111,9.7915,196.8786181
452,0.483110556,9.79599,199.7183526
453,0.483359167,9.79969,199.5632474
454,0.483611111,9.796666667,194.1713277
455,0.483864167,9.79363,191.2046988
456,0.484265556,9.788813333,188.4771236
457,0.484637222,9.784353333,187.8457066
458,0.484886667,9.78136,186.0382843
459,0.485137222,9.778353333,182.9088125
460,0.485391389,9.775303333,183.2535003
461,0.485645278,9.772256667,182.7841196
462,0.486028333,9.76766,181.0165404
463,0.486397222,9.763233333,180.2790227
464,0.486646944,9.760236667,176.1243846
465,0.486899167,9.75721,172.2554451
466,0.487149167,9.75421,166.3070112
467,0.487398611,9.751216667,159.7471218
468,0.487780556,9.746633333,154.5198494
469,0.488143611,9.742276667,160.2001835
470,0.488393889,9.739273333,166.055224
471,0.488643611,9.736276667,170.7498839
472,0.4888975,9.73323,168.9180125
473,0.489150556,9.730193333,163.6997139
474,0.489541667,9.7255,158.2361237
475,0.489908056,9.721103333,155.7811891
476,0.490156389,9.718123333,159.2012547
477,0.490404444,9.715146667,154.2342406
478,0.490655278,9.712136667,157.5964625
479,0.490903056,9.709163333,157.1366172
480,0.491289722,9.704523333,156.6983799
481,0.491662222,9.700053333,155.219731
482,0.491911944,9.697056667,155.0033888
483,0.492161389,9.694063333,152.2072282
484,0.4924125,9.69105,148.6112478
485,0.492663611,9.688036667,147.9831419
486,0.493053056,9.683363333,147.5770223
487,0.493419444,9.678966667,148.9349895
488,0.493674722,9.675903333,145.9889929
489,0.493929444,9.672846667,149.0357594
490,0.494179722,9.669843333,152.4634544
491,0.494429444,9.666846667,148.0126663
492,0.494823889,9.662113333,143.2784435
493,0.495195833,9.65765,142.3953534
494,0.495441389,9.654703333,142.5167734
495,0.495691667,9.6517,138.7195487
496,0.495942222,9.648693333,136.0004941
497,0.496192778,9.645686667,140.3579217
498,0.496581667,9.64102,144.0073778
499,0.496944444,9.636666667,142.6617505
500,0.497195,9.63366,139.3250925
501,0.497449167,9.63061,142.480072
502,0.497701111,9.627586667,141.1359131
503,0.497949167,9.62461,137.3850492
504,0.49833,9.62004,135.375546
505,0.498691944,9.615696667,138.946451
506,0.498942222,9.612693333,138.7977164
507,0.499194167,9.60967,145.0607941
508,0.499442222,9.606693333,140.6967163
509,0.499692222,9.603693333,139.3516944
510,0.500083611,9.601003333,135.0344092
511,0.5004525,9.60543,132.0424767
512,0.500704722,9.608456667,128.7839704
513,0.5009525,9.61143,128.7712675
514,0.5012,9.6144,127.2947514
515,0.501448333,9.61738,125.5800996
516,0.501827778,9.621933333,125.8677747
517,0.502187778,9.626253333,124.1601787
518,0.502434722,9.629216667,120.1231485
519,0.502686389,9.632236667,118.0207922
520,0.502936111,9.635233333,119.8997396
521,0.503186389,9.638236667,127.6665004
522,0.503583056,9.642996667,134.716343
523,0.503955833,9.64747,136.6400863
524,0.504203611,9.650443333,139.1078966
525,0.504455833,9.65347,139.823678
526,0.504708611,9.656503333,139.2602911
527,0.50496,9.65952,142.0595698
528,0.50534,9.66408,143.6300047
529,0.505701111,9.668413333,144.2951019
530,0.505948056,9.671376667,146.2100114
531,0.506197222,9.674366667,141.711015
532,0.506446944,9.677363333,138.2637496
533,0.506695556,9.680346667,140.2244491
534,0.507113611,9.685363333,142.6274468
535,0.507499167,9.68999,144.2639946
536,0.507746944,9.692963333,149.5742055
537,0.507993889,9.695926667,156.132112
538,0.508245,9.69894,157.4993582
539,0.508498889,9.701986667,158.104182
540,0.508891111,9.706693333,159.0125884
541,0.509262778,9.711153333,158.5084047
542,0.509510556,9.714126667,157.7843637
