Meas,Time,Temperature,Vmax
667,2.833521944,12.50113167,891.5623747
668,2.833844444,12.50306667,869.9195585
669,2.834092222,12.50455333,879.3478599
670,2.834336667,12.50602,884.1597842
671,2.834587222,12.50752333,870.3509184
672,2.834836667,12.50902,864.781432
673,2.835173056,12.51103833,858.4119053
674,2.835503889,12.51302333,852.8812564
675,2.835753056,12.51451833,855.6250076
676,2.836002778,12.51601667,853.4443628
677,2.836250278,12.51750167,859.7699481
678,2.8365,12.519,841.1349455
679,2.836836667,12.52102,822.2608649
680,2.8371625,12.522975,820.3391315
681,2.837409722,12.52445833,815.7310673
682,2.837663056,12.52597833,829.9105379
683,2.837916667,12.5275,843.1999128
684,2.838169167,12.529015,842.816815
685,2.838495278,12.53097167,843.0546427
686,2.838815278,12.53289167,840.3946105
687,2.839063611,12.53438167,854.0186147
688,2.839311389,12.53586833,860.2732068
689,2.83956,12.53736,862.52992
690,2.839809167,12.538855,857.0524322
691,2.840144444,12.54086667,848.8153877
692,2.840476389,12.54285833,861.7057299
693,2.840728611,12.54437167,877.9631057
694,2.840976111,12.54585667,887.0520149
695,2.841225833,12.547355,879.504671
696,2.841475,12.54885,879.5808288
697,2.841790278,12.55074167,882.8484489
698,2.842103611,12.55262167,880.8565127
699,2.8423525,12.554115,883.1848417
700,2.842600833,12.555605,897.5138381
701,2.842850556,12.55710333,892.156105
702,2.843097778,12.55858667,886.9011686
703,2.843421389,12.56052833,875.5884975
704,2.843740556,12.56244333,857.1229652
705,2.843989722,12.56393833,836.2355408
706,2.844236389,12.56541833,839.3106173
707,2.844487778,12.56692667,820.1749291
708,2.844736111,12.56841667,804.7655591
709,2.845058889,12.57035333,796.4109268
710,2.845375,12.57225,801.8513963
711,2.845621389,12.57372833,803.6657436
712,2.845870833,12.575225,814.1205156
713,2.846118056,12.57670833,815.5439486
714,2.846368333,12.57821,817.3987697
715,2.846704722,12.58022833,820.1666278
716,2.847033611,12.58220167,821.7907976
717,2.847281667,12.58369,835.5148345
718,2.847528611,12.58517167,835.9304043
719,2.847778056,12.58666833,841.4423659
720,2.848029444,12.58817667,817.9492852
721,2.848356389,12.59013833,791.7937854
722,2.848679722,12.59207833,796.7918277
723,2.8489275,12.593565,801.645472
724,2.849176944,12.59506167,813.8044084
725,2.849426389,12.59655833,809.6161862
726,2.849675,12.59805,815.6757417
727,2.850011389,12.60013667,820.9382923
728,2.850343056,12.60411667,823.4257913
729,2.850590278,12.60708333,830.2823423
730,2.850838889,12.61006667,842.982727
731,2.851086111,12.61303333,833.985628
732,2.851333611,12.61600333,830.6921687
733,2.851661389,12.61993667,828.0847038
734,2.851984167,12.62381,813.6845783
735,2.852231944,12.62678333,807.4687259
736,2.852478333,12.62974,803.2206512
737,2.852727222,12.63272667,801.8755784
738,2.852976667,12.63572,800.6606883
739,2.853301667,12.63962,802.8046231
740,2.853623333,12.64348,805.4420369
741,2.853874444,12.64649333,826.1917665
742,2.854123889,12.64948667,839.7090014
743,2.8543725,12.65247,842.676866
744,2.854620278,12.65544333,848.6762771
745,2.854940833,12.65929,852.2272194
746,2.855254444,12.66305333,861.6893882
747,2.855504444,12.66605333,877.3142518
748,2.855756667,12.66908,880.3790559
749,2.856005278,12.67206333,864.0495603
750,2.856250278,12.67500333,863.7863369
751,2.856576389,12.67891667,863.1209427
752,2.856898056,12.68277667,871.6583288
753,2.857146389,12.68575667,874.3418375
754,2.857396944,12.68876333,892.8034821
755,2.857648056,12.69177667,886.6979234
756,2.857896944,12.69476333,872.960542
757,2.858237778,12.69885333,858.4770445
758,2.858569444,12.70283333,866.7417185
759,2.858820556,12.70584667,878.1288018
760,2.859070278,12.70884333,874.0181768
761,2.859320556,12.71184667,884.3039898
762,2.859566389,12.71479667,892.6147091
763,2.859898889,12.71878667,899.8747041
764,2.860226667,12.72272,896.3102018
765,2.860473889,12.72568667,902.7513584
766,2.860721111,12.72865333,902.5902919
767,2.8609725,12.73167,886.6463504
768,2.861222222,12.73466667,898.6417687
769,2.861540833,12.73849,911.2812626
770,2.861853056,12.74223667,916.490679
771,2.862099167,12.74519,927.4644196
772,2.862345833,12.74815,935.1024688
773,2.8625925,12.75111,918.284424
774,2.862842778,12.75411333,934.2908488
775,2.863161944,12.75794333,948.9086058
776,2.863479167,12.76175,945.8602595
777,2.863727222,12.76472667,954.0318575
778,2.863977222,12.76772667,951.0982504
779,2.8642275,12.77073,945.6066836
780,2.864478611,12.77374333,938.5838014
781,2.864806667,12.77768,935.9220722
782,2.865128889,12.78154667,947.4024142
783,2.865375833,12.78451,949.4548062
784,2.865627222,12.78752667,949.7477517
785,2.8658775,12.79053,949.5628076
786,2.866126111,12.79351333,951.5285697
787,2.866439167,12.79727,949.9652446
788,2.866748056,12.80097667,942.1089536
789,2.866996944,12.80396333,959.1735591
790,2.867247222,12.80696667,963.709637
791,2.867498611,12.80998333,956.3753708
792,2.86775,12.813,949.3147194
793,2.868073056,12.81687667,939.6501646
794,2.868393889,12.82072667,940.2655674
795,2.868641389,12.82369667,939.4899875
796,2.868888333,12.82666,937.1316934
797,2.869134722,12.82961667,931.7494149
798,2.869384444,12.83261333,915.8209144
799,2.869723611,12.83668333,903.9627808
800,2.870050833,12.84061,906.5308533
801,2.870298056,12.84357667,902.8764716
802,2.8705475,12.84657,918.0788598
803,2.870794167,12.84953,923.1622696
804,2.871042778,12.85251333,929.6628814
805,2.871366389,12.85639667,933.612468
806,2.8716825,12.86019,913.7589404
807,2.871928333,12.86314,929.1873271
808,2.872178056,12.86613667,943.1711962
809,2.872429722,12.86915667,938.9132171
810,2.872681111,12.87217333,938.1443479
811,2.8730275,12.87633,934.4540547
812,2.873361944,12.88034333,942.9568004
813,2.873609722,12.88331667,946.642215
814,2.873858056,12.88629667,942.8254663
815,2.8741075,12.88929,934.2158578
816,2.874357778,12.89229333,931.5523384
817,2.874698889,12.89638667,931.924238
818,2.875030278,12.90036333,933.0203057
819,2.875275556,12.90330667,935.5380298
820,2.875522222,12.90626667,938.9128978
821,2.8757725,12.90927,928.7420835
822,2.876019167,12.91223,922.3644078
823,2.876344167,12.91613,907.7810647
824,2.876665833,12.91999,898.8311285
825,2.876913889,12.92296667,888.1278868
826,2.877163333,12.92596,898.8883016
827,2.877409167,12.92891,889.8601629
828,2.877659167,12.93191,884.6525609
829,2.877997222,12.93596667,884.4395376
830,2.878321667,12.93986,883.0330085
831,2.878568611,12.94282333,887.3632995
832,2.878816389,12.94579667,887.9603618
833,2.879064722,12.94877667,888.0542992
834,2.879317778,12.95181333,876.4147369
835,2.879655,12.95586,864.196102
836,2.879986667,12.95984,861.8851038
837,2.880233333,12.9628,852.7664204
838,2.880484722,12.96581667,848.4360349
839,2.880740278,12.96888333,843.1763017
840,2.880990556,12.97188667,821.9393773
841,2.881314444,12.97577333,801.3436325
842,2.881634167,12.97961,806.4038202
843,2.881881389,12.98257667,812.2022426
844,2.882129444,12.98555333,820.8452793
845,2.882378889,12.98854667,831.7784418
846,2.882632778,12.99159333,820.8047066
847,2.882949722,12.99539667,809.780981
848,2.883263333,12.99916,808.8381031
849,2.883508889,13.00210667,817.8369169
850,2.8837575,13.00509,843.7829147
851,2.884008889,13.00810667,825.7061663
852,2.884259167,13.01111,835.7849702
853,2.884596667,13.01516,846.4610297
854,2.884929722,13.01915667,830.2475787
855,2.885179167,13.02215,817.887653
856,2.885430556,13.02516667,824.1833318
857,2.885681944,13.02818333,806.4095221
858,2.885938611,13.03126333,820.1626191
859,2.886293333,13.03552,835.7527753
860,2.886632222,13.03958667,829.7466233
861,2.886879167,13.04255,856.6847982
862,2.887125833,13.04551,872.1894124
863,2.887376667,13.04852,877.3114593
864,2.887626389,13.05151667,873.9554918
865,2.887951944,13.05542333,865.8194931
866,2.888273333,13.05928,874.6666672
867,2.888519722,13.06223667,880.5234222
868,2.8887675,13.06521,883.0118486
869,2.8890125,13.06815,871.6966208
870,2.889261111,13.07113333,871.566266
871,2.889593056,13.07511667,869.630615
872,2.889921667,13.07906,879.6942466
873,2.890171944,13.08206333,883.1868024
874,2.890417778,13.08501333,886.2111972
875,2.890662778,13.08795333,880.0605122
876,2.890911111,13.09093333,874.8264334
877,2.891235556,13.09482667,870.0695495
878,2.891551667,13.09862,880.9851227
879,2.8917975,13.10157,901.5498725
880,2.892045556,13.10454667,903.9256414
881,2.892300278,13.10760333,907.1278113
882,2.892549722,13.11059667,899.1180958
883,2.892866667,13.1144,891.4756926
884,2.893178333,13.11814,898.5525552
885,2.893424722,13.12109667,899.139733
886,2.893670833,13.12405,889.4904967
887,2.893919444,13.12703333,886.1992533
888,2.89417,13.13004,889.6655681
889,2.894480556,13.13376667,889.0423159
890,2.894785556,13.13742667,894.7857027
891,2.895034167,13.14041,899.3588217
892,2.895285278,13.14342333,896.0112206
893,2.895532778,13.14639333,890.4336117
894,2.895779444,13.14935333,900.663101
895,2.896113333,13.15336,914.1976304
896,2.896443889,13.15732667,910.5016943
897,2.896691944,13.16030333,917.7582682
898,2.896943056,13.16331667,923.7235613
899,2.897190556,13.16628667,931.4638531
900,2.897438333,13.16926,917.1023084
901,2.897768889,13.17322667,904.9700839
902,2.898093611,13.17712333,919.4925556
903,2.898345556,13.18014667,928.2760116
904,2.898598611,13.18318333,932.9076915
905,2.898848056,13.18617667,934.8157068
906,2.899096667,13.18916,937.6897355
907,2.899413611,13.19296333,934.6863102
908,2.899725556,13.19670667,944.6397705
909,2.899972778,13.19967333,958.0134587
910,2.900220556,13.20264667,963.8901157
911,2.900468056,13.20561667,961.4956669
912,2.900713889,13.20856667,955.1632011
913,2.901026389,13.21231667,951.8712455
914,2.901338889,13.21606667,957.7737793
915,2.901587222,13.21904667,954.5976049
916,2.901835278,13.22202333,962.6575399
917,2.902086111,13.22503333,957.0558568
918,2.902334167,13.22801,959.9839424
919,2.902684722,13.23221667,963.2851058
920,2.903021389,13.23625667,976.0016604
921,2.903269722,13.23923667,971.203571
922,2.903522778,13.24227333,980.2449911
923,2.903771389,13.24525667,984.4174131
924,2.904020556,13.24824667,992.5021704
925,2.904349722,13.25219667,996.5591621
926,2.904669444,13.25603333,986.758929
927,2.904916111,13.25899333,997.1996918
928,2.905165833,13.26199,1004.540773
929,2.9054125,13.26495,998.9442313
930,2.905659722,13.26791667,1012.540791
931,2.906004444,13.27205333,1030.123964
932,2.906340556,13.27608667,1039.431262
933,2.906591389,13.27909667,1037.156966
934,2.906840556,13.28208667,1040.566338
935,2.907088056,13.28505667,1031.606924
936,2.907335833,13.28803,1043.450207
937,2.9076675,13.29201,1051.249083
938,2.907994722,13.29593667,1058.994479
939,2.908241389,13.29889667,1058.808097
940,2.908489167,13.30187,1052.211288
941,2.908740278,13.30488333,1052.280884
942,2.908988889,13.30786667,1032.614284
943,2.909335,13.31202,1010.276672
944,2.909671667,13.31606,1005.980251
945,2.909918056,13.31901667,1003.133816
946,2.910166667,13.322,1027.235392
947,2.910416944,13.32500333,1037.723604
948,2.910665278,13.32798333,1045.283362
949,2.910995278,13.33194333,1051.515434
950,2.911318611,13.33582333,1048.298254
951,2.911569167,13.33883,1054.585201
952,2.911818611,13.34182333,1064.880847
953,2.912069722,13.34483667,1063.746891
954,2.912323333,13.34788,1049.927031
955,2.912646389,13.35175667,1031.34284
956,2.912965556,13.35558667,1017.050476
957,2.913216389,13.35859667,1005.520101
958,2.913466111,13.36159333,1006.090386
959,2.913716389,13.36459667,988.3734586
960,2.913968056,13.36761667,971.9236423
961,2.914306111,13.37167333,958.2798375
962,2.914637778,13.37565333,954.5968971
963,2.914889722,13.37867667,955.7493643
964,2.915140278,13.38168333,943.2195722
965,2.915389722,13.38467667,951.220522
966,2.915641111,13.38769333,930.3326195
967,2.9159725,13.39167,909.3436131
968,2.916297778,13.39557333,912.3636113
969,2.916543611,13.39852333,927.1311706
970,2.916788611,13.40146333,938.5140095
971,2.917036944,13.40444333,932.4345163
972,2.917284722,13.40741667,932.8616255
973,2.917611944,13.41134333,933.0567413
974,2.917933333,13.4152,933.2853223
975,2.91818,13.41816,938.6925168
976,2.918429444,13.42115333,962.2239367
977,2.918675556,13.42410667,951.6131223
978,2.918925833,13.42711,954.0733121
979,2.919249444,13.43099333,955.4875255
980,2.919570833,13.43485,935.7958277
981,2.919820278,13.43784333,945.1677664
982,2.920071667,13.44086,944.7165559
983,2.920321111,13.44385333,941.0092812
984,2.920568889,13.44682667,939.0915848
985,2.920901111,13.45081333,934.6554252
986,2.921223889,13.45468667,939.3220265
987,2.921473056,13.45767667,932.3498245
988,2.921723889,13.46068667,937.4656641
989,2.921972222,13.46366667,939.6142985
990,2.922224444,13.46669333,932.475013
991,2.922561389,13.47073667,926.3614958
992,2.922894167,13.47473,921.990348
993,2.923145556,13.47774667,919.3530716
994,2.92339,13.48068,923.3013488
995,2.923638889,13.48366667,935.7548549
996,2.9238875,13.48665,947.8072701
997,2.924218056,13.49061667,956.2345994
998,2.924545278,13.49454333,959.0900197
999,2.924796667,13.49756,966.3412536
1000,2.925044167,13.50053,965.8927582
1001,2.925291111,13.50349333,963.6180603
1002,2.925538333,13.50646,944.0496267
1003,2.925870833,13.51045,925.6694731
1004,2.926197222,13.51436667,928.5194024
1005,2.926446667,13.51736,935.3885646
1006,2.926695,13.52034,935.6841689
1007,2.926941944,13.52330333,934.9335209
1008,2.927191389,13.52629667,932.5505448
1009,2.927515,13.53018,932.0230106
1010,2.927829444,13.53395333,929.7527989
1011,2.928078611,13.53694333,928.5224042
1012,2.928326389,13.53991667,920.3146978
1013,2.928575833,13.54291,922.6056202
1014,2.928829167,13.54595,928.2569267
1015,2.929151389,13.54981667,932.0382704
1016,2.9294675,13.55361,929.2062188
1017,2.929713611,13.55656333,928.4197303
1018,2.929960833,13.55953,940.4493489
1019,2.930212222,13.56254667,943.9807854
1020,2.930462778,13.56555333,939.7495233
1021,2.9308,13.5696,937.2639115
1022,2.931128611,13.57354333,939.6823832
1023,2.931375278,13.57650333,946.3416139
1024,2.931623056,13.57947667,949.8334761
1025,2.93187,13.58244,951.0225068
1026,2.9321175,13.58541,946.5946222
1027,2.932446389,13.58935667,938.8227985
1028,2.932773333,13.59328,931.3559598
1029,2.933023889,13.59628667,933.7712886
1030,2.933273333,13.59928,935.094053
1031,2.933523611,13.60228333,932.1915419
1032,2.933775278,13.60530333,918.7654396
1033,2.934118611,13.60942333,906.9529831
1034,2.934452778,13.61343333,899.6398092
1035,2.9347025,13.61643,893.8431953
1036,2.934950278,13.61940333,904.0766429
1037,2.935196944,13.62236333,902.5768302
1038,2.935448056,13.62537667,903.1837696
1039,2.935778889,13.62934667,901.2368493
1040,2.936103056,13.63323667,903.938396
1041,2.936350556,13.63620667,902.9029201
1042,2.936597778,13.63917333,901.1264012
1043,2.936849444,13.64219333,893.4947892
1044,2.937100278,13.64520333,889.1701746
1045,2.937414722,13.64897667,879.3011566
1046,2.937728611,13.65274333,874.5309485
1047,2.937978333,13.65574,882.0365991
1048,2.938229167,13.65875,879.7992258
1049,2.9384825,13.66179,881.7917958
1050,2.938732778,13.66479333,891.0730102
1051,2.939054444,13.66865333,905.3403653
1052,2.939374444,13.67249333,918.7364984
1053,2.939624722,13.67549667,935.3347157
1054,2.939876944,13.67852333,942.3123545
1055,2.940125278,13.68150333,940.5045302
1056,2.940376667,13.68452,957.2673184
1057,2.9407075,13.68849,972.7116391
1058,2.941033611,13.69240333,968.9108999
1059,2.941284167,13.69541,968.2456101
1060,2.941533611,13.69840333,964.3756992
1061,2.941781389,13.70137667,984.0125512
1062,2.942030833,13.70437,961.5416727
1063,2.942380556,13.70856667,936.1792086
1064,2.942718056,13.71261667,924.452952
1065,2.942966111,13.71559333,923.7881518
1066,2.943213333,13.71856,936.5408861
1067,2.943460833,13.72153,942.7667848
1068,2.9437075,13.72449,938.2625685
1069,2.944043889,13.72852667,931.0478838
1070,2.944373333,13.73248,932.081726
1071,2.944618333,13.73542,945.582272
1072,2.944863333,13.73836,951.479462
1073,2.945111944,13.74134333,949.4683648
1074,2.945360278,13.74432333,944.8491187
1075,2.945679444,13.74815333,939.11049
1076,2.945997222,13.75196667,922.7878074
1077,2.946245833,13.75495,915.5673569
1078,2.946495,13.75794,921.0053237
1079,2.946741944,13.76090333,906.8386866
1080,2.946990278,13.76388333,907.5579703
1081,2.9473175,13.76781,908.7441728
1082,2.947643611,13.77172333,902.1923421
1083,2.947892222,13.77470667,894.8363327
1084,2.948143333,13.77772,888.9955897
1085,2.948396389,13.78075667,893.3440487
1086,2.948645278,13.78374333,890.886698
1087,2.948977222,13.78772667,887.6125658
1088,2.949302222,13.79162667,895.3833234
1089,2.949551389,13.79461667,906.7114535
1090,2.949801111,13.79761333,894.4039448
1091,2.950049444,13.80029667,897.2808721
1092,2.950294722,13.80176833,892.2740279
1093,2.950624444,13.80374667,884.5404453
1094,2.950947778,13.80568667,883.5830314
1095,2.951195556,13.80717333,895.6991925
1096,2.951441944,13.80865167,904.3999379
1097,2.951688611,13.81013167,906.801134
1098,2.951938056,13.81162833,900.1139954
1099,2.952282778,13.81369667,891.7529826
1100,2.952618056,13.81570833,884.3709063
1101,2.952870278,13.81722167,886.6917282
1102,2.95312,13.81872,871.8848726
1103,2.953369444,13.82021667,877.8127961
1104,2.953616111,13.82169667,881.6152065
1105,2.9539525,13.823715,886.1335265
1106,2.954282778,13.82569667,874.6844499
1107,2.954526944,13.82716167,886.4564932
1108,2.954775556,13.82865333,870.8641464
1109,2.955025,13.83015,872.556176
1110,2.9552725,13.831635,862.5168677
1111,2.955606111,13.83363667,854.7710685
1112,2.955933333,13.8356,846.4554343
1113,2.956179167,13.837075,848.7083988
1114,2.9564275,13.838565,855.4527055
1115,2.956676111,13.84005667,865.6929619
1116,2.956925556,13.84155333,878.1534474
1117,2.957275556,13.84365333,887.2524293
1118,2.957612778,13.84567667,901.9388941
1119,2.957861944,13.84717167,911.3705348
1120,2.958109722,13.84865833,909.9007433
1121,2.958359444,13.85015667,914.5653778
1122,2.958608056,13.85164833,905.6989899
1123,2.958940278,13.85364167,895.5632675
1124,2.959267222,13.85560333,896.6445377
1125,2.959516944,13.85710167,913.3129749
1126,2.9597725,13.858635,920.4997153
1127,2.960023056,13.86013833,919.3242061
1128,2.960271944,13.86163167,912.6033535
1129,2.960587222,13.86352333,908.453773
1130,2.960901389,13.86540833,906.784139
1131,2.961149722,13.86689833,921.8636583
1132,2.9614,13.8684,918.4042176
1133,2.961648889,13.86989333,923.0099467
1134,2.961898333,13.87139,929.4478574
1135,2.962231944,13.87339167,933.4058676
1136,2.962564167,13.875385,942.9798709
1137,2.962814444,13.87688667,958.7106699
1138,2.963063056,13.87837833,964.1257623
1139,2.963314722,13.87988833,954.8524657
1140,2.963566667,13.8814,965.3814526
1141,2.9639,13.8834,974.8586009
1142,2.964226389,13.88535833,977.1138612
1143,2.964473333,13.88684,991.5241277
1144,2.964720556,13.88832333,995.1916633
1145,2.96497,13.88982,1004.784363
1146,2.965218611,13.89131167,1019.237894
1147,2.965558611,13.89335167,1031.841879
1148,2.965888333,13.89533,1013.161358
1149,2.966132222,13.89679333,1027.854253
1150,2.966378333,13.89827,1032.967017
1151,2.966629444,13.89977667,1031.928232
1152,2.966878056,13.90253667,1029.772515
1153,2.967205278,13.90646333,1033.040967
1154,2.967529444,13.91035333,1032.188658
1155,2.967776389,13.91331667,1045.254339
1156,2.968023889,13.91628667,1074.735227
1157,2.968274167,13.91929,1074.370767
1158,2.968525833,13.92231,1077.366809
1159,2.968851111,13.92621333,1071.884554
1160,2.9691725,13.93007,1062.343319
1161,2.969421111,13.93305333,1066.112399
1162,2.969670278,13.93604333,1069.609013
1163,2.96992,13.93904,1058.208058
1164,2.970165556,13.94198667,1054.171162
1165,2.970508056,13.94609667,1051.116514
