Meas,Time,Temperature,Vmax
1,1.11692,9.8,12.38121023
2,1.117260833,9.8,12.33116499
3,1.117592778,9.8,13.40185119
4,1.117843056,9.8,12.58659151
5,1.118092222,9.8,15.98420056
6,1.118340833,9.8,16.3068581
7,1.118595,9.8,16.60576381
8,1.118937778,9.8,16.93916693
9,1.119271944,9.8,15.6127057
10,1.119515833,9.8,14.45003796
11,1.119760833,9.8,11.4821149
12,1.120006389,9.8,10.07201869
13,1.120253333,9.8,7.662180839
14,1.120595278,9.8,5.523927924
15,1.120927778,9.8,3.801060683
16,1.121175,9.8,5.06404967
17,1.121423611,9.8,4.601027236
18,1.121671389,9.8,8.689937404
19,1.121915556,9.8,6.632398143
20,1.122251944,9.8,4.46662238
21,1.122581389,9.8,5.832814865
22,1.122827222,9.8,6.47498028
23,1.123073333,9.8,2.258269979
24,1.123320833,9.8,-2.955097923
25,1.123567222,9.8,-6.657363444
26,1.123901944,9.8,-10.09691362
27,1.124230833,9.8,-9.866701936
28,1.124480278,9.8,-12.9043965
29,1.124726111,9.8,-14.94779664
30,1.124971944,9.8,-16.46456052
31,1.125220278,9.8,-17.9799617
32,1.125560556,9.8,-19.66043706
33,1.125891111,9.8,-22.24099331
34,1.126136667,9.8,-23.15386807
35,1.126385556,9.8,-20.64387032
36,1.126632222,9.8,-19.08360195
37,1.1268825,9.8,-20.94826148
38,1.127223611,9.8,-22.51510919
39,1.127556944,9.8,-22.1415143
40,1.127804722,9.8,-21.09221556
41,1.128056667,9.8,-13.59048689
42,1.1283025,9.8,-13.04086256
43,1.128548611,9.8,-12.09733064
44,1.128890833,9.8,-11.55619822
45,1.129227222,9.8,-10.88015896
46,1.129475833,9.8,-11.21607516
47,1.129725278,9.8,-9.336956536
48,1.129973056,9.8,-11.07435235
49,1.130220556,9.8,-13.05370672
50,1.130563889,9.8,-14.77200541
51,1.130901944,9.8,-15.96051143
52,1.131147222,9.8,-16.69692433
53,1.131398333,9.8,-12.79042131
54,1.131648611,9.8,-10.64846739
55,1.131896111,9.8,-10.96826151
56,1.132236944,9.8,-11.51837386
57,1.132568056,9.8,-11.33129889
58,1.132813333,9.8,-11.75553217
59,1.133061944,9.8,-11.64930075
60,1.133311667,9.8,-9.014076644
61,1.133561389,9.806841667,-9.613719395
62,1.133903611,9.817108333,-10.13548374
63,1.134237222,9.827116667,-11.54921264
64,1.134484722,9.834541667,-12.97539574
65,1.1347325,9.841975,-15.33321396
66,1.13498,9.8494,-17.1592413
67,1.135225833,9.856775,-16.21606272
68,1.135567778,9.867033333,-15.30529773
69,1.135901944,9.877058333,-14.01404972
70,1.13615,9.8845,-13.04344779
71,1.136398056,9.891941667,-12.87380559
72,1.136645,9.89935,-14.78442233
73,1.1368925,9.906775,-18.67098742
74,1.137235278,9.917058333,-22.75843394
75,1.137567222,9.927016667,-24.04261038
76,1.137810833,9.934325,-23.87315703
77,1.138055833,9.941675,-22.22281325
78,1.138300833,9.949025,-22.47704185
79,1.138549167,9.956475,-21.90498703
80,1.138886389,9.966591667,-21.20433197
81,1.139217222,9.976516667,-21.9884884
82,1.139464167,9.983925,-20.87690737
83,1.139710278,9.991308333,-20.04733386
84,1.139959722,9.998791667,-20.66772769
85,1.140208611,10.00625833,-19.2359041
86,1.140548333,10.01645,-17.73157392
87,1.140878611,10.02635833,-17.72216027
88,1.141127778,10.03383333,-18.54587543
89,1.141376389,10.04129167,-20.15486759
90,1.141622222,10.04866667,-20.19534537
91,1.141868611,10.05605833,-18.50111331
92,1.142207778,10.06623333,-16.80389426
93,1.142538889,10.07616667,-15.35916944
94,1.142788056,10.08364167,-14.44412096
95,1.143035833,10.091075,-12.57386874
96,1.143281667,10.09845,-12.05542617
97,1.143526111,10.10578333,-8.823816617
98,1.143864167,10.115925,-5.449349405
99,1.144195833,10.125875,-6.190077172
100,1.144443611,10.13330833,-1.535573639
101,1.144693056,10.14079167,-0.196394539
102,1.144940556,10.14821667,0.42069025
103,1.145187778,10.15563333,0.776096232
104,1.145521667,10.16565,1.158092065
105,1.145848056,10.17544167,2.199693372
106,1.146092778,10.18278333,2.046205381
107,1.146339722,10.19019167,8.190513465
108,1.146585556,10.19756667,8.335291605
109,1.146829444,10.20488333,7.799080543
110,1.147171389,10.21514167,7.052333749
111,1.147503611,10.22510833,10.85843963
112,1.1477525,10.232575,9.34116183
113,1.148003611,10.24010833,8.24966135
114,1.148248333,10.24745,10.16045605
115,1.148498333,10.25495,9.8154533
116,1.148833611,10.26500833,9.403486758
117,1.149162222,10.27486667,8.212977761
118,1.149408056,10.28224167,9.418328527
119,1.149652222,10.28956667,11.96833738
120,1.149897778,10.29693333,14.99534524
121,1.150145833,10.2965,15.83188563
122,1.150484444,10.28837333,16.80423592
123,1.150811667,10.28052,18.79656638
124,1.151058333,10.2746,19.62909101
125,1.151303333,10.26872,22.92864747
126,1.151549167,10.26282,23.92833096
127,1.151795833,10.2569,21.85166363
128,1.152128611,10.24891333,19.94765171
129,1.152456111,10.24105333,21.4512484
130,1.152705833,10.23506,20.65667604
131,1.152955278,10.22907333,20.62389455
132,1.153202778,10.22313333,19.23460209
133,1.153451667,10.21716,16.41012872
134,1.153788611,10.20907333,13.42121905
135,1.154121111,10.20109333,13.72569325
136,1.154371389,10.19508667,10.62818328
137,1.154621944,10.18907333,8.56464611
138,1.154870556,10.18310667,10.91978932
139,1.155118889,10.17714667,9.383136455
140,1.155455278,10.16907333,7.842179544
141,1.155787222,10.16110667,8.963259228
142,1.156032778,10.15521333,11.10429364
143,1.156280556,10.14926667,10.09448524
144,1.156533611,10.14319333,5.958298697
145,1.156783889,10.13718667,1.765016935
146,1.157125556,10.12898667,-2.091697373
147,1.157458333,10.121,-0.883213341
148,1.157707778,10.11501333,-2.991330043
149,1.157954167,10.1091,-4.349871769
150,1.158204444,10.10309333,-4.954003793
151,1.158454167,10.0971,-5.089489161
152,1.158791111,10.08901333,-5.480081571
153,1.159119444,10.08113333,-5.293913732
154,1.159368611,10.07515333,-6.008506332
155,1.159616667,10.0692,-4.347169775
156,1.159865,10.06324,-2.758168445
157,1.160115278,10.05723333,-6.002870365
158,1.160455556,10.04906667,-9.270693679
159,1.160790556,10.04102667,-10.35289029
160,1.161038333,10.03508,-9.398748568
161,1.161287778,10.02909333,-2.357571874
162,1.161538056,10.02308667,-2.051567587
163,1.1617875,10.0171,0.374296039
164,1.162124722,10.00900667,2.621646871
165,1.162457222,10.00102667,6.860503583
166,1.162704167,9.9951,7.823876588
167,1.162948889,9.989226667,10.23338297
168,1.163196389,9.983286667,10.06911326
169,1.163445278,9.977313333,9.075076452
170,1.163788611,9.969073333,8.466666573
171,1.164122222,9.961066667,3.711991222
172,1.164370833,9.9551,2.09401724
173,1.1646175,9.94918,1.842286599
174,1.164863056,9.943286667,2.764047191
175,1.165108889,9.937386667,3.580644445
176,1.165451667,9.92916,3.885826103
177,1.165786111,9.921133333,2.731097558
178,1.166035556,9.915146667,2.669737759
179,1.166283889,9.909186667,-0.724947414
180,1.1665325,9.90322,1.622482881
181,1.166778611,9.9,2.271265988
182,1.167123611,9.9,3.083075948
183,1.167460833,9.9,2.73515632
184,1.167709444,9.9,2.446207745
185,1.1679525,9.9,-3.04786821
186,1.168195833,9.9,-8.112824229
187,1.168443333,9.9,-12.10570357
188,1.168784722,9.9,-16.02295725
189,1.1691175,9.9,-16.39641061
190,1.169364167,9.9,-18.81141989
191,1.169613611,9.9,-18.99042759
192,1.169858333,9.9,-21.77281973
193,1.170103611,9.9,-23.82161751
194,1.1704425,9.9,-25.89102943
195,1.170774167,9.9,-25.46979052
196,1.1710225,9.9,-20.29275995
197,1.171271944,9.9,-20.42199633
198,1.171520833,9.9,-17.97296045
199,1.171769167,9.9,-15.50679686
200,1.172107222,9.9,-13.01195855
201,1.1724375,9.9,-12.19812726
202,1.172684167,9.9,-11.00804341
203,1.172930556,9.9,-13.00739418
204,1.173178889,9.9,-15.21289636
205,1.173424167,9.9,-14.65844901
206,1.173759444,9.9,-13.94058526
207,1.174090833,9.9,-13.52029174
208,1.174337778,9.9,-14.9164179
209,1.174584722,9.9,-16.04278091
210,1.174832222,9.9,-15.13424012
211,1.175079722,9.9,-17.11064215
212,1.175415,9.9,-19.13368539
213,1.175745556,9.9,-17.25206088
214,1.175992778,9.9,-14.93916182
215,1.176240278,9.9,-14.23781391
216,1.176486944,9.9,-16.58702275
217,1.176730833,9.9,-15.32331508
218,1.177069722,9.9,-14.14709031
219,1.177402778,9.9,-16.10708549
220,1.177648056,9.9,-20.00291551
221,1.1778925,9.9,-19.75806992
222,1.178139722,9.9,-18.84513064
223,1.178385556,9.9,-19.56196701
224,1.178731944,9.9,-19.88551869
225,1.179065556,9.9,-21.20420866
226,1.179311944,9.9,-18.93399602
227,1.179557778,9.9,-17.46737073
228,1.1798075,9.9,-15.50035363
229,1.180054444,9.9,-14.99836417
230,1.1804025,9.9,-14.80251172
231,1.180739722,9.9,-11.58166907
232,1.180988889,9.9,-11.77443656
233,1.181236667,9.9,-12.43808033
234,1.181483333,9.9,-8.17775515
235,1.181726389,9.9,-6.804012616
236,1.182066111,9.9,-5.332197055
237,1.182402222,9.9,-1.964364081
238,1.18265,9.9,-0.20668671
239,1.182896667,9.9,2.530054297
240,1.183143333,9.9,4.818426223
241,1.18339,9.9017,4.705172175
242,1.183728611,9.911858333,4.783857966
243,1.184061944,9.921858333,7.302586035
244,1.184306944,9.929208333,7.822319769
245,1.184553333,9.9366,11.80288165
246,1.184801944,9.944058333,13.23485523
247,1.185047778,9.951433333,11.46068148
248,1.185388611,9.961658333,9.879683912
249,1.185723056,9.971691667,9.602244502
250,1.185968889,9.979066667,10.52994001
251,1.186216389,9.986491667,11.09561062
252,1.186461389,9.993841667,10.46538737
253,1.18671,10.0013,11.93917509
254,1.187049722,10.01149167,13.2707549
255,1.187383333,10.0215,16.39710792
256,1.18763,10.0289,15.43735238
257,1.187878333,10.03635,11.99376168
258,1.188128056,10.04384167,10.69303887
259,1.188374444,10.05123333,10.19228505
260,1.1887125,10.061375,9.901068011
261,1.189043611,10.07130833,9.415064616
262,1.1892975,10.078925,7.442517331
263,1.189551389,10.08654167,7.733773787
264,1.189799444,10.09398333,6.188871646
265,1.190048611,10.10145833,2.538438588
266,1.190381389,10.11144167,-1.138748524
267,1.190708333,10.12125,-0.915728553
268,1.190953333,10.1286,-0.852619614
269,1.1912,10.136,-1.539787052
270,1.191450278,10.14350833,-3.797675656
271,1.191697778,10.15093333,-3.378716941
272,1.1920325,10.160975,-2.805531561
273,1.192361944,10.17085833,2.459796706
274,1.192610833,10.178325,4.089441546
275,1.19286,10.1858,5.886947879
276,1.193107778,10.19323333,8.332945472
277,1.193354722,10.20064167,5.510810302
278,1.193685556,10.21056667,2.728572197
279,1.194012222,10.22036667,0.105590931
280,1.194258333,10.22775,1.538243821
281,1.194505,10.23515,4.985325061
282,1.194755278,10.24265833,4.619087543
283,1.195003056,10.25009167,7.771625064
284,1.195348333,10.26045,10.96618722
285,1.195683611,10.27050833,11.98646241
286,1.195931111,10.27793333,12.13824879
287,1.196178056,10.28534167,15.62392746
288,1.196425,10.29275,16.70097914
289,1.196675,10.30025,15.86853567
290,1.197014722,10.31044167,15.05784364
291,1.197346667,10.3204,13.99928351
292,1.197594444,10.32783333,12.79184319
293,1.197840833,10.335225,13.73602057
294,1.198089722,10.34269167,13.84117309
295,1.198342778,10.35028333,14.538729
296,1.198678889,10.36036667,15.09449966
297,1.199009444,10.37028333,12.85959437
298,1.199253889,10.37761667,14.30915547
299,1.199498889,10.38496667,15.28778488
300,1.199749167,10.392475,18.06370223
301,1.199998333,10.39995,18.92360201
302,1.200344722,10.393795,20.02469055
303,1.200679167,10.387775,20.60885141
304,1.200926667,10.38332,20.666847
305,1.201173333,10.37888,17.97479826
306,1.201416389,10.374505,17.67601465
307,1.201660556,10.37011,15.39755819
308,1.202002222,10.36396,13.05380968
309,1.202334722,10.357975,12.33168004
310,1.202580556,10.35355,9.553602009
311,1.202830278,10.349055,13.48591206
312,1.203085,10.34447,11.00672152
313,1.203334444,10.33998,6.861241022
314,1.203678056,10.333795,2.979712881
315,1.204016111,10.32771,3.739132577
316,1.204263889,10.32325,7.248669504
317,1.204512222,10.31878,3.812719437
318,1.204761944,10.314285,2.378878773
319,1.205014722,10.309735,3.885526169
320,1.205350833,10.303685,5.037366674
321,1.205674444,10.29786,4.904015766
322,1.205920556,10.29343,2.71883263
323,1.206165556,10.28902,1.803750554
324,1.206411111,10.2846,-0.432124087
325,1.206660278,10.280115,-2.791084746
326,1.207000278,10.273995,-4.957693857
327,1.207334167,10.267985,-3.673414603
328,1.207580556,10.26355,-1.390326384
329,1.207828056,10.259095,-0.448662094
330,1.208074722,10.254655,1.888621253
331,1.208320833,10.250225,-0.88144288
332,1.208658056,10.244155,-3.486106096
333,1.208991667,10.23815,-2.544894773
334,1.209241944,10.233645,-0.406798203
335,1.209490556,10.22917,-1.87792414
336,1.209739722,10.224685,-4.156705734
337,1.209986667,10.22024,-5.7039909
338,1.210322778,10.21419,-7.389755223
339,1.210654167,10.208225,-7.271256942
340,1.210903611,10.203735,-9.016191941
341,1.211150556,10.19929,-12.38359607
342,1.211396389,10.194865,-11.17428533
343,1.211641944,10.190445,-13.51698603
344,1.211979444,10.18437,-15.5497176
345,1.212313056,10.178365,-17.1232545
346,1.212563333,10.17386,-15.94791256
347,1.212813611,10.169355,-18.50964062
348,1.213061389,10.164895,-16.78878528
349,1.213310833,10.160405,-16.04261696
350,1.213650556,10.15429,-15.362232
351,1.213982222,10.14832,-17.20842016
352,1.21423,10.14386,-16.81253953
353,1.214481389,10.139335,-17.04381878
354,1.214731389,10.134835,-14.42673934
355,1.21498,10.13036,-12.32546133
356,1.215318056,10.124275,-10.2442534
357,1.215649167,10.118315,-6.232288021
358,1.215896667,10.11386,-4.273511373
359,1.216145833,10.109375,-0.984346443
360,1.216395556,10.10488,-1.755471053
361,1.216645,10.10039,-4.038701046
362,1.216982778,10.09810333,-6.103213425
363,1.217313056,10.09612167,-3.788314433
364,1.217561389,10.09463167,-6.70667523
365,1.217808056,10.09315167,-5.866787338
366,1.218053889,10.09167667,-2.927743514
367,1.2183025,10.090185,-3.398020573
368,1.218633056,10.08820167,-3.728740706
369,1.218960556,10.08623667,-4.373530081
370,1.219209722,10.08474167,-1.52997702
371,1.219457222,10.08325667,-0.346517551
372,1.219705,10.08177,0.069872358
373,1.219951944,10.08028833,3.038478115
374,1.22029,10.07826,5.982667337
375,1.220619444,10.07628333,9.224777319
376,1.220863889,10.07481667,9.024571924
377,1.221112222,10.07332667,5.541436664
378,1.221361667,10.07183,1.886410494
379,1.221607222,10.07035667,0.619632621
380,1.221948333,10.06831,-0.394885965
381,1.222281944,10.06630833,-0.275256583
382,1.222530556,10.06481667,-2.294364402
383,1.222775556,10.06334667,-3.180931945
384,1.223023611,10.06185833,-4.558629489
385,1.223273056,10.06036167,-6.014526205
386,1.223612222,10.05832667,-7.494671236
387,1.223942222,10.05634667,-6.894919769
388,1.224189722,10.05486167,-4.7544298
389,1.2244375,10.053375,-5.597613777
390,1.224684167,10.051895,-5.200645961
391,1.22493,10.05042,-6.872324133
392,1.225269167,10.048385,-8.298760389
393,1.225601389,10.04639167,-5.621214046
394,1.225848056,10.04491167,-5.468453684
395,1.226095,10.04343,-3.237041524
396,1.22634,10.04196,-2.473551299
397,1.226589444,10.04046333,-3.277782003
398,1.226927222,10.03843667,-4.070174535
399,1.227256389,10.03646167,-6.588564286
400,1.227503611,10.03497833,-7.940444012
401,1.227748889,10.03350667,-9.972073529
402,1.227998056,10.03201167,-12.62959995
403,1.228243889,10.03053667,-10.92461292
404,1.228572778,10.02856333,-9.170382192
405,1.228896667,10.02662,-8.640658199
406,1.229141944,10.02514833,-9.078487446
407,1.229388333,10.02367,-6.010738388
408,1.229639167,10.022165,-7.859148549
409,1.229889444,10.02066333,-11.7146461
410,1.230226944,10.01863833,-15.6735689
411,1.230559722,10.01664167,-13.66084142
412,1.230805278,10.01516833,-11.38177751
413,1.231054444,10.01367333,-8.105447216
414,1.231302222,10.01218667,-6.607794129
415,1.231552778,10.01068333,-4.38017076
416,1.231892778,10.00864333,-1.926870446
417,1.232226389,10.00664167,-0.270211833
418,1.232473611,10.00515833,1.218676193
419,1.232718333,10.00369,5.155750904
420,1.232964444,10.00221333,6.46823443
421,1.233211389,10.00073167,4.484987588
422,1.233551111,10,2.617336201
423,1.233883611,10,0.793200816
424,1.234130278,10,-1.076081711
425,1.234376944,10,-1.452989709
426,1.234625833,10,1.215870508
427,1.234874167,10,0.061267818
428,1.235213889,10,-1.319399793
429,1.235546667,10,-1.084205086
430,1.235794444,10,-0.294620447
431,1.2360425,10,0.712585379
432,1.236286667,10,-1.010638839
433,1.236529722,10,-2.500695083
434,1.236865833,10,-3.709080636
435,1.237203056,10,-1.398923412
436,1.237448889,10,-2.08434593
437,1.237693333,10,-3.472306768
438,1.2379425,10,-2.694305875
439,1.23819,10,-1.578155704
440,1.238525278,10,-0.65972655
441,1.238850556,10,-0.921109999
442,1.239101944,10,-0.258050557
443,1.239349722,10,1.898276917
444,1.239595278,10,0.463288242
445,1.239845,10,-2.041092405
446,1.240179444,10,-4.459957319
447,1.240508056,10,-0.70499303
448,1.240760556,10,1.806962837
449,1.241007778,10,3.072924519
450,1.241255833,10,7.086226627
451,1.241504167,10,4.753510648
452,1.241845278,10,2.650179126
453,1.242181111,10,4.187462831
454,1.242427222,10,3.602996476
455,1.242673889,10,-0.714998564
456,1.242920278,10,-3.449442862
457,1.243168056,10,-5.962722098
458,1.243509722,10,-8.611081482
459,1.243843333,10,-7.754078345
460,1.244089167,10,-7.48383669
461,1.244335833,10,-8.446609581
462,1.244587222,10,-8.230211758
463,1.2448375,10,-9.520571529
464,1.2451775,10,-10.71520543
465,1.245511944,10,-10.14774608
466,1.245758889,10,-10.4595263
467,1.246003611,10,-8.424658853
468,1.246249444,10,-4.917036492
469,1.246498889,10,-4.346684102
470,1.246839722,10,-3.653066672
471,1.247175833,10,-3.963200676
472,1.247423611,10,-3.216732229
473,1.247671389,10,-2.292117373
474,1.247918611,10,-2.445403263
475,1.248169167,10,-2.383918144
476,1.248513611,10,-2.566742774
477,1.248848056,10,-2.193857596
478,1.249094444,10,-4.089372315
479,1.2493425,10,-2.99833051
480,1.249595278,10,-3.073288083
481,1.249844167,10,-4.243852746
482,1.25018,9.99892,-5.246688592
483,1.25051,9.99694,-2.576486461
484,1.250756667,9.99546,-3.800531396
485,1.2510025,9.993985,-5.181033015
486,1.2512475,9.992515,-6.048271011
487,1.251495278,9.991028333,-6.549447302
488,1.2518375,9.988975,-7.126650032
489,1.252169444,9.986983333,-6.409330806
490,1.252416111,9.985503333,-4.848574042
491,1.252661944,9.984028333,-3.3075917
492,1.252905,9.98257,-0.539134067
493,1.253150833,9.981095,-0.282641518
494,1.253487222,9.979076667,0.070026645
495,1.253813333,9.97712,0.724455466
496,1.254059722,9.975641667,-2.289642786
497,1.254308611,9.974148333,-5.329650396
498,1.254557778,9.972653333,-7.02077906
499,1.254803889,9.971176667,-11.45585497
500,1.255136667,9.96918,-16.03887335
501,1.255464722,9.967211667,-14.44242649
502,1.255713056,9.965721667,-14.23444385
503,1.255960833,9.964235,-14.81306549
504,1.2562075,9.962755,-15.47297969
505,1.256456667,9.96126,-17.79782217
506,1.256792222,9.959246667,-19.76973589
507,1.257118333,9.95729,-19.29420458
508,1.257363889,9.955816667,-14.93114223
509,1.257608333,9.95435,-15.75163772
510,1.257853889,9.952876667,-15.39901043
511,1.2581025,9.951385,-12.46152449
512,1.258441389,9.949351667,-9.642889996
513,1.258772778,9.947363333,-7.527092512
514,1.259017778,9.945893333,-7.021629436
515,1.259263889,9.944416667,-4.765597601
516,1.259511667,9.94293,-4.462722782
517,1.25976,9.94144,-3.207392736
518,1.260096944,9.939418333,-2.176206702
519,1.260429722,9.937421667,-0.551627716
520,1.260679167,9.935925,-0.734603246
521,1.260925556,9.934446667,-2.845728672
522,1.2611725,9.932965,-6.203455489
523,1.261422222,9.931466667,-5.565319103
524,1.261762778,9.929423333,-5.030943399
525,1.262097222,9.927416667,-3.916783088
526,1.262346111,9.925923333,-2.862556337
527,1.262590833,9.924455,-5.69922297
528,1.262834722,9.922991667,-5.836139647
529,1.263080278,9.921518333,-7.580150924
530,1.263413889,9.919516667,-8.958912833
531,1.263741389,9.917551667,-10.35785176
532,1.263989722,9.916061667,-6.619823966
533,1.264240833,9.914555,-5.165025985
534,1.264489444,9.913063333,-1.797070772
535,1.264736389,9.911581667,1.834994793
